#xlabel Wavelength (nm)
#ylabel Spectrometer Array Counts
#title Exposure time is 9300 ms
## lambda	counts
 349.8	16670
 350.3	16910
 350.8	17142
 351.3	17318
 351.9	17421
 352.4	17530
 352.9	17615
 353.4	17585
 354.0	17595
 354.5	17640
 355.0	17649
 355.5	17658
 356.0	17619
 356.6	17590
 357.1	17633
 357.6	17611
 358.1	17637
 358.7	17577
 359.2	17596
 359.7	17611
 360.2	17641
 360.8	17609
 361.3	17697
 361.8	17643
 362.3	17673
 362.9	17629
 363.4	17704
 363.9	17702
 364.4	17731
 364.9	17647
 365.5	17715
 366.0	17692
 366.5	17651
 367.0	17698
 367.6	17719
 368.1	17719
 368.6	17655
 369.1	17708
 369.7	17759
 370.2	17683
 370.7	17681
 371.2	17726
 371.8	17773
 372.3	17702
 372.8	17769
 373.3	17783
 373.9	17734
 374.4	17745
 374.9	17788
 375.5	17698
 376.0	17815
 376.5	17778
 377.0	17801
 377.6	17743
 378.1	17820
 378.6	17756
 379.1	17764
 379.7	17749
 380.2	17812
 380.7	17815
 381.2	17777
 381.8	17761
 382.3	17805
 382.8	17784
 383.4	17835
 383.9	17787
 384.4	17926
 384.9	17842
 385.5	17867
 386.0	17860
 386.5	17932
 387.1	17865
 387.6	17878
 388.1	17879
 388.6	17898
 389.2	17885
 389.7	17910
 390.2	17891
 390.8	17975
 391.3	17947
 391.8	17944
 392.3	17933
 392.9	17923
 393.4	17921
 393.9	17991
 394.5	17997
 395.0	17942
 395.5	17971
 396.0	17969
 396.6	17939
 397.1	18022
 397.6	18021
 398.2	18027
 398.7	18025
 399.2	18115
 399.8	17993
 400.3	18049
 400.8	18093
 401.3	18073
 401.9	18091
 402.4	18106
 402.9	18091
 403.5	18121
 404.0	18110
 404.5	18062
 405.1	18071
 405.6	18162
 406.1	18135
 406.7	18144
 407.2	18153
 407.7	18235
 408.2	18227
 408.8	18232
 409.3	18260
 409.8	18298
 410.4	18269
 410.9	18270
 411.4	18229
 412.0	18284
 412.5	18341
 413.0	18295
 413.6	18333
 414.1	18294
 414.6	18327
 415.2	18367
 415.7	18308
 416.2	18355
 416.8	18343
 417.3	18325
 417.8	18353
 418.4	18438
 418.9	18379
 419.4	18504
 420.0	18399
 420.5	18461
 421.0	18407
 421.5	18487
 422.1	18474
 422.6	18517
 423.1	18541
 423.7	18516
 424.2	18501
 424.7	18539
 425.3	18514
 425.8	18532
 426.3	18525
 426.9	18587
 427.4	18528
 427.9	18633
 428.5	18576
 429.0	18620
 429.6	18576
 430.1	18658
 430.6	18660
 431.2	18607
 431.7	18705
 432.2	18672
 432.8	18663
 433.3	18765
 433.8	18769
 434.4	18745
 434.9	18765
 435.4	18813
 436.0	18795
 436.5	18798
 437.0	18871
 437.6	18846
 438.1	18891
 438.6	18900
 439.2	18925
 439.7	18919
 440.2	18870
 440.8	18895
 441.3	18898
 441.8	18905
 442.4	18870
 442.9	18896
 443.5	18929
 444.0	18921
 444.5	18947
 445.1	18872
 445.6	18911
 446.1	18923
 446.7	18947
 447.2	18967
 447.7	18956
 448.3	19028
 448.8	18995
 449.3	19033
 449.9	18990
 450.4	19097
 450.9	19138
 451.5	19145
 452.0	19130
 452.6	19159
 453.1	19216
 453.6	19231
 454.2	19137
 454.7	19214
 455.2	19237
 455.8	19287
 456.3	19239
 456.8	19363
 457.4	19296
 457.9	19309
 458.5	19357
 459.0	19317
 459.5	19359
 460.1	19312
 460.6	19361
 461.1	19348
 461.7	19393
 462.2	19347
 462.7	19380
 463.3	19314
 463.8	19387
 464.4	19445
 464.9	19397
 465.4	19455
 466.0	19363
 466.5	19437
 467.0	19381
 467.6	19449
 468.1	19543
 468.7	19476
 469.2	19420
 469.7	19510
 470.3	19504
 470.8	19540
 471.3	19525
 471.9	19495
 472.4	19553
 473.0	19602
 473.5	19619
 474.0	19619
 474.6	19632
 475.1	19630
 475.6	19702
 476.2	19721
 476.7	19701
 477.3	19761
 477.8	19711
 478.3	19651
 478.9	19844
 479.4	19745
 479.9	19764
 480.5	19752
 481.0	19781
 481.6	19808
 482.1	19877
 482.6	19861
 483.2	19876
 483.7	19990
 484.2	19933
 484.8	19796
 485.3	19894
 485.9	19974
 486.4	19939
 486.9	19968
 487.5	19935
 488.0	19950
 488.6	20007
 489.1	20025
 489.6	20080
 490.2	20076
 490.7	20043
 491.2	20020
 491.8	20075
 492.3	20030
 492.9	20080
 493.4	20091
 493.9	20103
 494.5	20106
 495.0	20169
 495.6	20090
 496.1	20095
 496.6	20153
 497.2	20075
 497.7	20037
 498.2	20121
 498.8	20144
 499.3	20054
 499.9	20115
 500.4	20115
 500.9	20103
 501.5	20094
 502.0	20173
 502.6	20157
 503.1	20245
 503.6	20225
 504.2	20185
 504.7	20205
 505.2	20283
 505.8	20289
 506.3	20374
 506.9	20399
 507.4	20378
 507.9	20373
 508.5	20426
 509.0	20481
 509.6	20559
 510.1	20545
 510.6	20598
 511.2	20636
 511.7	20636
 512.2	20711
 512.8	20742
 513.3	20718
 513.9	20719
 514.4	20787
 514.9	20857
 515.5	20770
 516.0	20844
 516.6	20815
 517.1	20862
 517.6	20838
 518.2	20808
 518.7	20747
 519.3	20790
 519.8	20819
 520.3	20808
 520.9	20753
 521.4	20755
 521.9	20802
 522.5	20723
 523.0	20733
 523.6	20761
 524.1	20622
 524.6	20670
 525.2	20689
 525.7	20724
 526.3	20644
 526.8	20740
 527.3	20698
 527.9	20728
 528.4	20716
 528.9	20781
 529.5	20807
 530.0	20800
 530.6	20859
 531.1	20877
 531.6	20815
 532.2	20943
 532.7	20919
 533.3	20975
 533.8	21104
 534.3	21155
 534.9	21169
 535.4	21137
 536.0	21226
 536.5	21281
 537.0	21259
 537.6	21305
 538.1	21358
 538.6	21401
 539.2	21355
 539.7	21386
 540.3	21493
 540.8	21463
 541.3	21437
 541.9	21473
 542.4	21483
 543.0	21550
 543.5	21511
 544.0	21489
 544.6	21530
 545.1	21547
 545.6	21577
 546.2	21561
 546.7	21475
 547.3	21532
 547.8	21502
 548.3	21549
 548.9	21467
 549.4	21466
 550.0	21435
 550.5	21489
 551.0	21529
 551.6	21486
 552.1	21499
 552.6	21493
 553.2	21470
 553.7	21446
 554.3	21483
 554.8	21549
 555.3	21415
 555.9	21486
 556.4	21447
 556.9	21550
 557.5	21583
 558.0	21541
 558.6	21524
 559.1	21599
 559.6	21591
 560.2	21602
 560.7	21609
 561.3	21587
 561.8	21573
 562.3	21695
 562.9	21682
 563.4	21724
 563.9	21725
 564.5	21733
 565.0	21722
 565.6	21751
 566.1	21746
 566.6	21761
 567.2	21744
 567.7	21844
 568.2	21766
 568.8	21775
 569.3	21753
 569.9	21823
 570.4	21813
 570.9	21786
 571.5	21788
 572.0	21782
 572.5	21839
 573.1	21794
 573.6	21843
 574.1	21836
 574.7	21842
 575.2	21821
 575.8	21859
 576.3	21946
 576.8	21915
 577.4	21928
 577.9	21955
 578.4	21925
 579.0	21947
 579.5	22049
 580.1	21983
 580.6	22007
 581.1	22090
 581.7	22121
 582.2	22068
 582.7	22116
 583.3	22166
 583.8	22146
 584.3	22108
 584.9	22171
 585.4	22185
 586.0	22166
 586.5	22203
 587.0	22177
 587.6	22247
 588.1	22210
 588.6	22280
 589.2	22230
 589.7	22245
 590.2	22235
 590.8	22227
 591.3	22253
 591.9	22202
 592.4	22252
 592.9	22189
 593.5	22180
 594.0	22167
 594.5	22174
 595.1	22147
 595.6	22114
 596.1	22163
 596.7	22113
 597.2	22142
 597.7	22079
 598.3	22087
 598.8	22052
 599.3	22049
 599.9	22024
 600.4	22013
 601.0	22008
 601.5	21991
 602.0	21982
 602.6	21929
 603.1	21945
 603.6	21945
 604.2	22040
 604.7	21954
 605.2	22020
 605.8	21942
 606.3	21971
 606.8	22049
 607.4	22022
 607.9	22067
 608.4	22029
 609.0	22064
 609.5	22117
 610.0	22099
 610.6	22198
 611.1	22127
 611.6	22161
 612.2	22167
 612.7	22239
 613.2	22238
 613.8	22188
 614.3	22233
 614.8	22296
 615.4	22245
 615.9	22339
 616.4	22408
 617.0	22374
 617.5	22471
 618.0	22507
 618.6	22457
 619.1	22508
 619.6	22595
 620.2	22617
 620.7	22692
 621.2	22671
 621.8	22731
 622.3	22772
 622.8	22748
 623.4	22793
 623.9	22863
 624.4	22851
 625.0	22852
 625.5	22869
 626.0	22877
 626.6	22927
 627.1	22916
 627.6	22868
 628.2	22833
 628.7	22869
 629.2	22851
 629.8	22872
 630.3	22869
 630.8	22849
 631.4	22822
 631.9	22835
 632.4	22718
 632.9	22724
 633.5	22711
 634.0	22658
 634.5	22716
 635.1	22639
 635.6	22610
 636.1	22585
 636.7	22619
 637.2	22597
 637.7	22499
 638.3	22578
 638.8	22564
 639.3	22558
 639.8	22501
 640.4	22511
 640.9	22523
 641.4	22435
 642.0	22417
 642.5	22428
 643.0	22399
 643.6	22473
 644.1	22437
 644.6	22446
 645.1	22477
 645.7	22462
 646.2	22420
 646.7	22441
 647.3	22476
 647.8	22475
 648.3	22456
 648.9	22503
 649.4	22425
 649.9	22493
 650.4	22503
 651.0	22554
 651.5	22573
 652.0	22631
 652.6	22585
 653.1	22664
 653.6	22599
 654.1	22670
 654.7	22639
 655.2	22726
 655.7	22767
 656.3	22789
 656.8	22743
 657.3	22813
 657.8	22770
 658.4	22770
 658.9	22784
 659.4	22867
 659.9	22863
 660.5	22851
 661.0	22894
 661.5	22943
 662.1	22913
 662.6	22919
 663.1	22893
 663.6	22962
 664.2	22931
 664.7	22896
 665.2	22829
 665.7	22949
 666.3	22917
 666.8	22925
 667.3	22927
 667.8	22884
 668.4	22912
 668.9	22909
 669.4	22892
 669.9	22921
 670.5	22857
 671.0	22867
 671.5	22811
 672.0	22868
 672.6	22867
 673.1	22894
 673.6	22806
 674.1	22828
 674.7	22815
 675.2	22858
 675.7	22717
 676.2	22727
 676.8	22786
 677.3	22798
 677.8	22717
 678.3	22821
 678.9	22754
 679.4	22693
 679.9	22751
 680.4	22752
 681.0	22719
 681.5	22747
 682.0	22716
 682.5	22741
 683.1	22651
 683.6	22691
 684.1	22634
 684.6	22726
 685.1	22673
 685.7	22690
 686.2	22661
 686.7	22627
 687.2	22618
 687.8	22679
 688.3	22621
 688.8	22648
 689.3	22595
 689.8	22623
 690.4	22613
 690.9	22625
 691.4	22628
 691.9	22651
 692.4	22609
 693.0	22678
 693.5	22651
 694.0	22629
 694.5	22623
 695.1	22609
 695.6	22577
 696.1	22638
 696.6	22623
 697.1	22643
 697.7	22666
 698.2	22601
 698.7	22626
 699.2	22585
 699.7	22596
 700.3	22576
 700.8	22548
 701.3	22649
 701.8	22606
 702.3	22551
 702.8	22555
 703.4	22529
 703.9	22529
 704.4	22520
 704.9	22485
 705.4	22482
 706.0	22567
 706.5	22551
 707.0	22468
 707.5	22452
 708.0	22478
 708.5	22427
 709.1	22485
 709.6	22446
 710.1	22410
 710.6	22384
 711.1	22378
 711.7	22395
 712.2	22387
 712.7	22397
 713.2	22371
 713.7	22373
 714.2	22329
 714.8	22403
 715.3	22355
 715.8	22357
 716.3	22361
 716.8	22280
 717.3	22265
 717.8	22372
 718.4	22384
 718.9	22321
 719.4	22395
 719.9	22316
 720.4	22351
 720.9	22359
 721.4	22353
 722.0	22375
 722.5	22362
 723.0	22354
 723.5	22369
 724.0	22335
 724.5	22329
 725.0	22350
 725.6	22292
 726.1	22343
 726.6	22454
 727.1	22393
 727.6	22431
 728.1	22456
 728.6	22414
 729.1	22396
 729.7	22389
 730.2	22414
 730.7	22447
 731.2	22475
 731.7	22463
 732.2	22467
 732.7	22450
 733.2	22485
 733.8	22460
 734.3	22490
 734.8	22462
 735.3	22482
 735.8	22473
 736.3	22457
 736.8	22490
 737.3	22532
 737.8	22491
 738.4	22484
 738.9	22449
 739.4	22527
 739.9	22508
 740.4	22521
 740.9	22508
 741.4	22505
 741.9	22499
 742.4	22518
 742.9	22500
 743.4	22579
 744.0	22498
 744.5	22486
 745.0	22494
 745.5	22569
 746.0	22539
 746.5	22542
 747.0	22491
 747.5	22472
 748.0	22438
 748.5	22455
 749.0	22465
 749.5	22539
 750.0	22379
 750.5	22430
 751.1	22431
 751.6	22421
 752.1	22405
 752.6	22367
 753.1	22390
 753.6	22326
 754.1	22295
 754.6	22333
 755.1	22291
 755.6	22281
 756.1	22204
 756.6	22284
 757.1	22247
 757.6	22223
 758.1	22187
 758.6	22191
 759.1	22118
 759.6	22137
 760.1	22076
 760.7	22041
 761.2	22107
 761.7	22047
 762.2	22024
 762.7	22063
 763.2	21928
 763.7	21999
 764.2	21928
 764.7	21925
 765.2	21937
 765.7	21903
 766.2	21851
 766.7	21888
 767.2	21835
 767.7	21831
 768.2	21800
 768.7	21758
 769.2	21741
 769.7	21785
 770.2	21743
 770.7	21737
 771.2	21711
 771.7	21683
 772.2	21685
 772.7	21725
 773.2	21700
 773.7	21648
 774.2	21591
 774.7	21643
 775.2	21630
 775.7	21591
 776.2	21578
 776.7	21599
 777.2	21530
 777.7	21600
 778.2	21575
 778.7	21610
 779.2	21616
 779.7	21639
 780.2	21487
 780.7	21553
 781.2	21557
 781.7	21618
 782.2	21537
 782.6	21605
 783.1	21606
 783.6	21574
 784.1	21532
 784.6	21525
 785.1	21533
 785.6	21521
 786.1	21550
 786.6	21562
 787.1	21505
 787.6	21501
 788.1	21494
 788.6	21486
 789.1	21475
 789.6	21505
 790.1	21511
 790.6	21510
 791.1	21413
 791.6	21416
 792.0	21428
 792.5	21463
 793.0	21434
 793.5	21425
 794.0	21353
 794.5	21432
 795.0	21407
 795.5	21375
 796.0	21380
 796.5	21322
 797.0	21341
 797.5	21369
 798.0	21226
 798.4	21261
 798.9	21229
 799.4	21239
 799.9	21231
 800.4	21105
 800.9	21183
 801.4	21231
 801.9	21180
 802.4	21103
 802.9	21149
 803.3	21133
 803.8	21087
 804.3	21031
 804.8	21081
 805.3	21024
 805.8	20999
 806.3	20989
 806.8	20954
 807.2	20935
 807.7	20903
 808.2	20919
 808.7	20839
 809.2	20833
 809.7	20755
 810.2	20810
 810.7	20739
 811.1	20741
 811.6	20732
 812.1	20682
 812.6	20634
 813.1	20670
 813.6	20675
 814.1	20645
 814.5	20601
 815.0	20606
 815.5	20562
 816.0	20519
 816.5	20575
 817.0	20516
 817.4	20487
 817.9	20514
 818.4	20445
 818.9	20511
 819.4	20459
 819.9	20438
 820.3	20403
 820.8	20399
 821.3	20389
 821.8	20387
 822.3	20342
 822.7	20315
 823.2	20364
 823.7	20315
 824.2	20312
 824.7	20287
 825.2	20301
 825.6	20271
 826.1	20263
 826.6	20303
 827.1	20287
 827.6	20274
 828.0	20210
 828.5	20180
 829.0	20213
 829.5	20161
 829.9	20165
 830.4	20203
 830.9	20191
 831.4	20206
 831.9	20169
 832.3	20241
 832.8	20182
 833.3	20172
 833.8	20253
 834.2	20235
 834.7	20088
 835.2	20176
 835.7	20174
 836.1	20168
 836.6	20138
 837.1	20145
 837.6	20155
 838.0	20178
 838.5	20201
 839.0	20196
 839.5	20187
 839.9	20105
 840.4	20108
 840.9	20073
 841.4	20107
 841.8	20122
 842.3	20136
 842.8	20153
 843.3	20147
 843.7	20046
 844.2	20029
 844.7	20116
 845.1	20086
 845.6	20009
 846.1	20024
 846.6	20056
 847.0	19957
 847.5	20003
 848.0	19979
 848.4	20019
 848.9	19986
 849.4	19960
 849.8	19979
 850.3	19969
 850.8	20013
 851.3	19973
 851.7	19963
 852.2	19968
 852.7	19954
 853.1	19925
 853.6	19874
 854.1	19916
 854.5	19876
 855.0	19856
 855.5	19850
 855.9	19900
 856.4	19890
 856.9	19804
 857.3	19848
 857.8	19812
 858.3	19847
 858.7	19798
 859.2	19809
 859.7	19810
 860.1	19856
 860.6	19838
 861.1	19772
 861.5	19809
 862.0	19809
 862.4	19778
 862.9	19741
 863.4	19774
 863.8	19778
 864.3	19772
 864.8	19683
 865.2	19729
 865.7	19749
 866.1	19755
 866.6	19676
 867.1	19743
 867.5	19719
 868.0	19697
 868.5	19643
 868.9	19649
 869.4	19739
 869.8	19687
 870.3	19644
 870.8	19709
 871.2	19658
 871.7	19649
 872.1	19591
 872.6	19640
 873.0	19615
 873.5	19686
 874.0	19668
 874.4	19559
 874.9	19583
 875.3	19538
 875.8	19447
 876.2	19252
 876.7	19111
 877.2	18799
 877.6	18405
 878.1	18020
