#xlabel Wavelength (nm)
#ylabel Spectrometer Array Counts
#title Exposure time is 9300 ms
## lambda	counts
 349.8	16676
 350.3	16923
 350.8	17163
 351.3	17345
 351.9	17446
 352.4	17558
 352.9	17633
 353.4	17602
 354.0	17606
 354.5	17649
 355.0	17656
 355.5	17662
 356.0	17626
 356.6	17591
 357.1	17635
 357.6	17620
 358.1	17644
 358.7	17579
 359.2	17602
 359.7	17614
 360.2	17643
 360.8	17618
 361.3	17705
 361.8	17651
 362.3	17681
 362.9	17639
 363.4	17714
 363.9	17710
 364.4	17735
 364.9	17651
 365.5	17719
 366.0	17704
 366.5	17660
 367.0	17704
 367.6	17727
 368.1	17725
 368.6	17659
 369.1	17715
 369.7	17764
 370.2	17689
 370.7	17688
 371.2	17736
 371.8	17780
 372.3	17711
 372.8	17779
 373.3	17788
 373.9	17739
 374.4	17748
 374.9	17799
 375.5	17702
 376.0	17821
 376.5	17782
 377.0	17805
 377.6	17758
 378.1	17823
 378.6	17763
 379.1	17768
 379.7	17754
 380.2	17817
 380.7	17818
 381.2	17781
 381.8	17770
 382.3	17812
 382.8	17793
 383.4	17833
 383.9	17795
 384.4	17933
 384.9	17847
 385.5	17867
 386.0	17864
 386.5	17938
 387.1	17870
 387.6	17886
 388.1	17893
 388.6	17905
 389.2	17889
 389.7	17921
 390.2	17894
 390.8	17982
 391.3	17946
 391.8	17946
 392.3	17941
 392.9	17937
 393.4	17924
 393.9	18001
 394.5	18002
 395.0	17952
 395.5	17975
 396.0	17976
 396.6	17945
 397.1	18033
 397.6	18026
 398.2	18027
 398.7	18027
 399.2	18117
 399.8	17997
 400.3	18059
 400.8	18103
 401.3	18083
 401.9	18095
 402.4	18114
 402.9	18099
 403.5	18126
 404.0	18115
 404.5	18074
 405.1	18076
 405.6	18164
 406.1	18138
 406.7	18149
 407.2	18157
 407.7	18236
 408.2	18228
 408.8	18238
 409.3	18269
 409.8	18307
 410.4	18277
 410.9	18277
 411.4	18233
 412.0	18294
 412.5	18340
 413.0	18293
 413.6	18334
 414.1	18302
 414.6	18338
 415.2	18377
 415.7	18313
 416.2	18365
 416.8	18347
 417.3	18331
 417.8	18355
 418.4	18442
 418.9	18384
 419.4	18507
 420.0	18406
 420.5	18466
 421.0	18417
 421.5	18493
 422.1	18475
 422.6	18530
 423.1	18546
 423.7	18525
 424.2	18509
 424.7	18545
 425.3	18515
 425.8	18541
 426.3	18531
 426.9	18590
 427.4	18529
 427.9	18635
 428.5	18585
 429.0	18623
 429.6	18585
 430.1	18663
 430.6	18663
 431.2	18611
 431.7	18707
 432.2	18675
 432.8	18662
 433.3	18767
 433.8	18776
 434.4	18757
 434.9	18771
 435.4	18821
 436.0	18805
 436.5	18803
 437.0	18877
 437.6	18855
 438.1	18902
 438.6	18905
 439.2	18935
 439.7	18927
 440.2	18877
 440.8	18902
 441.3	18903
 441.8	18905
 442.4	18871
 442.9	18904
 443.5	18936
 444.0	18930
 444.5	18951
 445.1	18875
 445.6	18913
 446.1	18930
 446.7	18947
 447.2	18975
 447.7	18963
 448.3	19033
 448.8	19003
 449.3	19041
 449.9	18999
 450.4	19100
 450.9	19143
 451.5	19149
 452.0	19133
 452.6	19164
 453.1	19221
 453.6	19237
 454.2	19145
 454.7	19223
 455.2	19244
 455.8	19291
 456.3	19242
 456.8	19373
 457.4	19300
 457.9	19317
 458.5	19362
 459.0	19321
 459.5	19360
 460.1	19319
 460.6	19363
 461.1	19350
 461.7	19392
 462.2	19349
 462.7	19387
 463.3	19323
 463.8	19391
 464.4	19454
 464.9	19400
 465.4	19465
 466.0	19370
 466.5	19440
 467.0	19384
 467.6	19456
 468.1	19543
 468.7	19478
 469.2	19422
 469.7	19516
 470.3	19510
 470.8	19545
 471.3	19535
 471.9	19501
 472.4	19553
 473.0	19602
 473.5	19625
 474.0	19621
 474.6	19635
 475.1	19631
 475.6	19706
 476.2	19723
 476.7	19705
 477.3	19765
 477.8	19710
 478.3	19654
 478.9	19847
 479.4	19750
 479.9	19760
 480.5	19754
 481.0	19785
 481.6	19816
 482.1	19880
 482.6	19867
 483.2	19879
 483.7	19993
 484.2	19937
 484.8	19797
 485.3	19901
 485.9	19976
 486.4	19936
 486.9	19970
 487.5	19933
 488.0	19952
 488.6	20017
 489.1	20023
 489.6	20084
 490.2	20082
 490.7	20045
 491.2	20018
 491.8	20076
 492.3	20031
 492.9	20079
 493.4	20091
 493.9	20105
 494.5	20109
 495.0	20172
 495.6	20092
 496.1	20103
 496.6	20158
 497.2	20081
 497.7	20042
 498.2	20127
 498.8	20142
 499.3	20060
 499.9	20123
 500.4	20117
 500.9	20109
 501.5	20103
 502.0	20181
 502.6	20159
 503.1	20249
 503.6	20226
 504.2	20190
 504.7	20204
 505.2	20283
 505.8	20293
 506.3	20378
 506.9	20399
 507.4	20386
 507.9	20379
 508.5	20428
 509.0	20489
 509.6	20562
 510.1	20551
 510.6	20599
 511.2	20636
 511.7	20633
 512.2	20714
 512.8	20744
 513.3	20720
 513.9	20724
 514.4	20787
 514.9	20860
 515.5	20773
 516.0	20841
 516.6	20815
 517.1	20860
 517.6	20839
 518.2	20813
 518.7	20750
 519.3	20797
 519.8	20822
 520.3	20811
 520.9	20759
 521.4	20761
 521.9	20804
 522.5	20721
 523.0	20734
 523.6	20766
 524.1	20623
 524.6	20669
 525.2	20692
 525.7	20731
 526.3	20658
 526.8	20742
 527.3	20703
 527.9	20729
 528.4	20721
 528.9	20787
 529.5	20813
 530.0	20809
 530.6	20861
 531.1	20878
 531.6	20817
 532.2	20943
 532.7	20924
 533.3	20973
 533.8	21107
 534.3	21158
 534.9	21168
 535.4	21143
 536.0	21230
 536.5	21285
 537.0	21263
 537.6	21311
 538.1	21365
 538.6	21402
 539.2	21356
 539.7	21386
 540.3	21495
 540.8	21466
 541.3	21433
 541.9	21474
 542.4	21485
 543.0	21553
 543.5	21510
 544.0	21488
 544.6	21541
 545.1	21545
 545.6	21579
 546.2	21565
 546.7	21481
 547.3	21529
 547.8	21501
 548.3	21548
 548.9	21474
 549.4	21470
 550.0	21436
 550.5	21492
 551.0	21533
 551.6	21481
 552.1	21496
 552.6	21500
 553.2	21471
 553.7	21454
 554.3	21479
 554.8	21552
 555.3	21421
 555.9	21490
 556.4	21453
 556.9	21549
 557.5	21581
 558.0	21546
 558.6	21529
 559.1	21599
 559.6	21591
 560.2	21602
 560.7	21608
 561.3	21587
 561.8	21575
 562.3	21698
 562.9	21687
 563.4	21721
 563.9	21719
 564.5	21731
 565.0	21719
 565.6	21749
 566.1	21753
 566.6	21758
 567.2	21747
 567.7	21848
 568.2	21768
 568.8	21783
 569.3	21757
 569.9	21823
 570.4	21817
 570.9	21786
 571.5	21786
 572.0	21782
 572.5	21839
 573.1	21791
 573.6	21839
 574.1	21839
 574.7	21843
 575.2	21822
 575.8	21865
 576.3	21942
 576.8	21917
 577.4	21933
 577.9	21957
 578.4	21927
 579.0	21947
 579.5	22052
 580.1	21987
 580.6	22007
 581.1	22092
 581.7	22120
 582.2	22072
 582.7	22114
 583.3	22172
 583.8	22147
 584.3	22111
 584.9	22171
 585.4	22181
 586.0	22161
 586.5	22198
 587.0	22173
 587.6	22250
 588.1	22211
 588.6	22283
 589.2	22235
 589.7	22247
 590.2	22237
 590.8	22232
 591.3	22256
 591.9	22204
 592.4	22260
 592.9	22191
 593.5	22181
 594.0	22161
 594.5	22169
 595.1	22150
 595.6	22117
 596.1	22165
 596.7	22119
 597.2	22149
 597.7	22081
 598.3	22086
 598.8	22048
 599.3	22055
 599.9	22025
 600.4	22010
 601.0	22010
 601.5	21991
 602.0	21980
 602.6	21930
 603.1	21945
 603.6	21947
 604.2	22041
 604.7	21955
 605.2	22021
 605.8	21941
 606.3	21973
 606.8	22046
 607.4	22030
 607.9	22069
 608.4	22031
 609.0	22067
 609.5	22113
 610.0	22096
 610.6	22201
 611.1	22131
 611.6	22164
 612.2	22170
 612.7	22245
 613.2	22239
 613.8	22191
 614.3	22230
 614.8	22295
 615.4	22245
 615.9	22343
 616.4	22410
 617.0	22377
 617.5	22477
 618.0	22507
 618.6	22458
 619.1	22507
 619.6	22596
 620.2	22613
 620.7	22691
 621.2	22673
 621.8	22731
 622.3	22769
 622.8	22749
 623.4	22795
 623.9	22856
 624.4	22847
 625.0	22850
 625.5	22862
 626.0	22876
 626.6	22925
 627.1	22913
 627.6	22867
 628.2	22836
 628.7	22873
 629.2	22847
 629.8	22871
 630.3	22873
 630.8	22847
 631.4	22815
 631.9	22836
 632.4	22720
 632.9	22720
 633.5	22709
 634.0	22659
 634.5	22719
 635.1	22642
 635.6	22609
 636.1	22583
 636.7	22615
 637.2	22599
 637.7	22507
 638.3	22585
 638.8	22562
 639.3	22563
 639.8	22507
 640.4	22517
 640.9	22527
 641.4	22438
 642.0	22415
 642.5	22427
 643.0	22401
 643.6	22475
 644.1	22435
 644.6	22444
 645.1	22475
 645.7	22458
 646.2	22423
 646.7	22442
 647.3	22471
 647.8	22479
 648.3	22455
 648.9	22502
 649.4	22423
 649.9	22497
 650.4	22503
 651.0	22551
 651.5	22574
 652.0	22630
 652.6	22586
 653.1	22669
 653.6	22596
 654.1	22673
 654.7	22637
 655.2	22725
 655.7	22767
 656.3	22789
 656.8	22743
 657.3	22813
 657.8	22763
 658.4	22766
 658.9	22786
 659.4	22872
 659.9	22872
 660.5	22851
 661.0	22896
 661.5	22946
 662.1	22914
 662.6	22927
 663.1	22893
 663.6	22969
 664.2	22930
 664.7	22899
 665.2	22831
 665.7	22945
 666.3	22919
 666.8	22922
 667.3	22927
 667.8	22888
 668.4	22915
 668.9	22915
 669.4	22895
 669.9	22922
 670.5	22854
 671.0	22872
 671.5	22820
 672.0	22873
 672.6	22872
 673.1	22894
 673.6	22807
 674.1	22837
 674.7	22821
 675.2	22861
 675.7	22727
 676.2	22725
 676.8	22785
 677.3	22796
 677.8	22715
 678.3	22822
 678.9	22753
 679.4	22697
 679.9	22755
 680.4	22757
 681.0	22717
 681.5	22748
 682.0	22715
 682.5	22735
 683.1	22651
 683.6	22697
 684.1	22635
 684.6	22726
 685.1	22674
 685.7	22687
 686.2	22661
 686.7	22634
 687.2	22613
 687.8	22679
 688.3	22616
 688.8	22647
 689.3	22591
 689.8	22623
 690.4	22617
 690.9	22625
 691.4	22631
 691.9	22647
 692.4	22607
 693.0	22675
 693.5	22647
 694.0	22631
 694.5	22626
 695.1	22611
 695.6	22569
 696.1	22643
 696.6	22623
 697.1	22639
 697.7	22672
 698.2	22602
 698.7	22627
 699.2	22589
 699.7	22591
 700.3	22569
 700.8	22548
 701.3	22651
 701.8	22604
 702.3	22553
 702.8	22557
 703.4	22529
 703.9	22531
 704.4	22521
 704.9	22483
 705.4	22484
 706.0	22568
 706.5	22559
 707.0	22462
 707.5	22455
 708.0	22476
 708.5	22424
 709.1	22483
 709.6	22451
 710.1	22415
 710.6	22381
 711.1	22378
 711.7	22402
 712.2	22391
 712.7	22399
 713.2	22374
 713.7	22375
 714.2	22333
 714.8	22401
 715.3	22354
 715.8	22355
 716.3	22363
 716.8	22279
 717.3	22266
 717.8	22368
 718.4	22382
 718.9	22317
 719.4	22397
 719.9	22317
 720.4	22354
 720.9	22360
 721.4	22357
 722.0	22382
 722.5	22373
 723.0	22359
 723.5	22373
 724.0	22335
 724.5	22327
 725.0	22354
 725.6	22291
 726.1	22343
 726.6	22449
 727.1	22394
 727.6	22430
 728.1	22451
 728.6	22414
 729.1	22397
 729.7	22387
 730.2	22417
 730.7	22448
 731.2	22478
 731.7	22460
 732.2	22472
 732.7	22449
 733.2	22489
 733.8	22469
 734.3	22486
 734.8	22465
 735.3	22484
 735.8	22474
 736.3	22458
 736.8	22493
 737.3	22535
 737.8	22487
 738.4	22491
 738.9	22445
 739.4	22527
 739.9	22512
 740.4	22519
 740.9	22510
 741.4	22505
 741.9	22505
 742.4	22515
 742.9	22499
 743.4	22577
 744.0	22494
 744.5	22493
 745.0	22496
 745.5	22569
 746.0	22538
 746.5	22539
 747.0	22491
 747.5	22470
 748.0	22435
 748.5	22454
 749.0	22462
 749.5	22544
 750.0	22378
 750.5	22431
 751.1	22437
 751.6	22426
 752.1	22406
 752.6	22369
 753.1	22395
 753.6	22326
 754.1	22291
 754.6	22334
 755.1	22289
 755.6	22289
 756.1	22209
 756.6	22289
 757.1	22250
 757.6	22230
 758.1	22187
 758.6	22189
 759.1	22121
 759.6	22141
 760.1	22082
 760.7	22049
 761.2	22114
 761.7	22049
 762.2	22027
 762.7	22070
 763.2	21932
 763.7	22002
 764.2	21928
 764.7	21927
 765.2	21947
 765.7	21907
 766.2	21857
 766.7	21891
 767.2	21837
 767.7	21831
 768.2	21803
 768.7	21769
 769.2	21745
 769.7	21781
 770.2	21744
 770.7	21741
 771.2	21718
 771.7	21683
 772.2	21690
 772.7	21727
 773.2	21706
 773.7	21653
 774.2	21595
 774.7	21639
 775.2	21623
 775.7	21595
 776.2	21584
 776.7	21606
 777.2	21537
 777.7	21604
 778.2	21578
 778.7	21610
 779.2	21617
 779.7	21637
 780.2	21487
 780.7	21556
 781.2	21561
 781.7	21619
 782.2	21537
 782.6	21606
 783.1	21607
 783.6	21573
 784.1	21542
 784.6	21527
 785.1	21538
 785.6	21526
 786.1	21555
 786.6	21565
 787.1	21511
 787.6	21503
 788.1	21494
 788.6	21493
 789.1	21478
 789.6	21513
 790.1	21517
 790.6	21515
 791.1	21417
 791.6	21420
 792.0	21431
 792.5	21465
 793.0	21437
 793.5	21425
 794.0	21357
 794.5	21439
 795.0	21411
 795.5	21379
 796.0	21383
 796.5	21326
 797.0	21343
 797.5	21372
 798.0	21226
 798.4	21257
 798.9	21238
 799.4	21243
 799.9	21237
 800.4	21104
 800.9	21185
 801.4	21231
 801.9	21178
 802.4	21106
 802.9	21161
 803.3	21135
 803.8	21097
 804.3	21036
 804.8	21086
 805.3	21031
 805.8	21002
 806.3	20987
 806.8	20959
 807.2	20940
 807.7	20909
 808.2	20924
 808.7	20839
 809.2	20833
 809.7	20763
 810.2	20812
 810.7	20749
 811.1	20752
 811.6	20734
 812.1	20688
 812.6	20636
 813.1	20677
 813.6	20683
 814.1	20652
 814.5	20606
 815.0	20613
 815.5	20563
 816.0	20523
 816.5	20577
 817.0	20519
 817.4	20490
 817.9	20517
 818.4	20446
 818.9	20515
 819.4	20463
 819.9	20441
 820.3	20410
 820.8	20404
 821.3	20392
 821.8	20383
 822.3	20347
 822.7	20321
 823.2	20365
 823.7	20320
 824.2	20317
 824.7	20294
 825.2	20300
 825.6	20277
 826.1	20263
 826.6	20305
 827.1	20292
 827.6	20279
 828.0	20216
 828.5	20180
 829.0	20219
 829.5	20163
 829.9	20171
 830.4	20211
 830.9	20191
 831.4	20211
 831.9	20171
 832.3	20245
 832.8	20187
 833.3	20176
 833.8	20257
 834.2	20239
 834.7	20087
 835.2	20180
 835.7	20175
 836.1	20167
 836.6	20137
 837.1	20151
 837.6	20155
 838.0	20183
 838.5	20199
 839.0	20204
 839.5	20185
 839.9	20111
 840.4	20110
 840.9	20076
 841.4	20116
 841.8	20125
 842.3	20141
 842.8	20159
 843.3	20149
 843.7	20053
 844.2	20042
 844.7	20121
 845.1	20096
 845.6	20012
 846.1	20030
 846.6	20064
 847.0	19959
 847.5	19999
 848.0	19982
 848.4	20022
 848.9	19984
 849.4	19964
 849.8	19979
 850.3	19974
 850.8	20015
 851.3	19975
 851.7	19969
 852.2	19972
 852.7	19961
 853.1	19929
 853.6	19877
 854.1	19921
 854.5	19879
 855.0	19865
 855.5	19857
 855.9	19911
 856.4	19899
 856.9	19805
 857.3	19851
 857.8	19819
 858.3	19857
 858.7	19805
 859.2	19819
 859.7	19808
 860.1	19867
 860.6	19837
 861.1	19774
 861.5	19813
 862.0	19818
 862.4	19783
 862.9	19743
 863.4	19784
 863.8	19781
 864.3	19777
 864.8	19686
 865.2	19737
 865.7	19757
 866.1	19761
 866.6	19681
 867.1	19751
 867.5	19730
 868.0	19701
 868.5	19649
 868.9	19659
 869.4	19746
 869.8	19694
 870.3	19647
 870.8	19715
 871.2	19667
 871.7	19650
 872.1	19591
 872.6	19643
 873.0	19615
 873.5	19686
 874.0	19679
 874.4	19572
 874.9	19604
 875.3	19561
 875.8	19471
 876.2	19277
 876.7	19138
 877.2	18817
 877.6	18419
 878.1	18026
