#xlabel Wavelength (nm)
#ylabel Spectrometer Array Counts
#title Exposure time is 12000 ms
## lambda	counts
 349.8	20568
 350.3	20805
 350.8	21049
 351.3	21261
 351.9	21397
 352.4	21538
 352.9	21637
 353.4	21620
 354.0	21648
 354.5	21721
 355.0	21737
 355.5	21769
 356.0	21736
 356.6	21701
 357.1	21757
 357.6	21730
 358.1	21766
 358.7	21699
 359.2	21720
 359.7	21731
 360.2	21773
 360.8	21727
 361.3	21832
 361.8	21763
 362.3	21793
 362.9	21743
 363.4	21825
 363.9	21814
 364.4	21848
 364.9	21747
 365.5	21821
 366.0	21805
 366.5	21746
 367.0	21795
 367.6	21811
 368.1	21818
 368.6	21743
 369.1	21797
 369.7	21851
 370.2	21754
 370.7	21758
 371.2	21802
 371.8	21855
 372.3	21762
 372.8	21846
 373.3	21855
 373.9	21790
 374.4	21809
 374.9	21852
 375.5	21723
 376.0	21860
 376.5	21806
 377.0	21838
 377.6	21773
 378.1	21851
 378.6	21769
 379.1	21775
 379.7	21746
 380.2	21826
 380.7	21822
 381.2	21773
 381.8	21750
 382.3	21792
 382.8	21765
 383.4	21813
 383.9	21751
 384.4	21923
 384.9	21810
 385.5	21821
 386.0	21826
 386.5	21903
 387.1	21817
 387.6	21836
 388.1	21825
 388.6	21844
 389.2	21819
 389.7	21839
 390.2	21812
 390.8	21909
 391.3	21858
 391.8	21847
 392.3	21817
 392.9	21791
 393.4	21782
 393.9	21851
 394.5	21843
 395.0	21775
 395.5	21792
 396.0	21786
 396.6	21739
 397.1	21835
 397.6	21834
 398.2	21825
 398.7	21822
 399.2	21930
 399.8	21780
 400.3	21845
 400.8	21892
 401.3	21849
 401.9	21863
 402.4	21881
 402.9	21859
 403.5	21886
 404.0	21858
 404.5	21796
 405.1	21799
 405.6	21887
 406.1	21849
 406.7	21847
 407.2	21845
 407.7	21916
 408.2	21898
 408.8	21895
 409.3	21918
 409.8	21950
 410.4	21906
 410.9	21900
 411.4	21831
 412.0	21893
 412.5	21942
 413.0	21875
 413.6	21911
 414.1	21861
 414.6	21884
 415.2	21924
 415.7	21848
 416.2	21892
 416.8	21864
 417.3	21844
 417.8	21852
 418.4	21948
 418.9	21867
 419.4	22013
 420.0	21870
 420.5	21930
 421.0	21855
 421.5	21944
 422.1	21904
 422.6	21961
 423.1	21978
 423.7	21938
 424.2	21912
 424.7	21945
 425.3	21921
 425.8	21932
 426.3	21908
 426.9	21971
 427.4	21887
 427.9	22019
 428.5	21933
 429.0	21961
 429.6	21907
 430.1	21992
 430.6	21965
 431.2	21880
 431.7	21984
 432.2	21928
 432.8	21893
 433.3	21997
 433.8	21980
 434.4	21929
 434.9	21928
 435.4	21971
 436.0	21933
 436.5	21917
 437.0	21975
 437.6	21937
 438.1	21986
 438.6	21992
 439.2	22015
 439.7	21997
 440.2	21930
 440.8	21962
 441.3	21968
 441.8	21965
 442.4	21923
 442.9	21953
 443.5	22000
 444.0	21983
 444.5	22008
 445.1	21905
 445.6	21938
 446.1	21957
 446.7	21967
 447.2	21977
 447.7	21946
 448.3	22013
 448.8	21954
 449.3	21981
 449.9	21902
 450.4	22003
 450.9	22023
 451.5	22003
 452.0	21953
 452.6	21951
 453.1	22002
 453.6	21995
 454.2	21842
 454.7	21913
 455.2	21924
 455.8	21962
 456.3	21885
 456.8	22014
 457.4	21921
 457.9	21923
 458.5	21972
 459.0	21919
 459.5	21970
 460.1	21907
 460.6	21951
 461.1	21941
 461.7	21990
 462.2	21942
 462.7	21977
 463.3	21896
 463.8	21969
 464.4	22040
 464.9	21963
 465.4	22037
 466.0	21915
 466.5	21993
 467.0	21909
 467.6	21973
 468.1	22067
 468.7	21972
 469.2	21879
 469.7	21979
 470.3	21942
 470.8	21976
 471.3	21940
 471.9	21878
 472.4	21929
 473.0	21969
 473.5	21973
 474.0	21951
 474.6	21943
 475.1	21926
 475.6	21999
 476.2	22002
 476.7	21967
 477.3	22014
 477.8	21939
 478.3	21851
 478.9	22082
 479.4	21935
 479.9	21941
 480.5	21913
 481.0	21933
 481.6	21945
 482.1	22005
 482.6	21959
 483.2	21962
 483.7	22080
 484.2	22001
 484.8	21805
 485.3	21906
 485.9	21980
 486.4	21925
 486.9	21933
 487.5	21887
 488.0	21880
 488.6	21939
 489.1	21943
 489.6	21993
 490.2	21977
 490.7	21931
 491.2	21881
 491.8	21945
 492.3	21884
 492.9	21939
 493.4	21943
 493.9	21965
 494.5	21963
 495.0	22039
 495.6	21945
 496.1	21965
 496.6	22034
 497.2	21934
 497.7	21893
 498.2	21999
 498.8	22022
 499.3	21922
 499.9	21986
 500.4	21974
 500.9	21951
 501.5	21931
 502.0	22003
 502.6	21960
 503.1	22057
 503.6	22002
 504.2	21935
 504.7	21926
 505.2	21979
 505.8	21952
 506.3	22030
 506.9	22015
 507.4	21950
 507.9	21901
 508.5	21925
 509.0	21947
 509.6	21997
 510.1	21949
 510.6	21966
 511.2	21975
 511.7	21935
 512.2	22001
 512.8	22006
 513.3	21947
 513.9	21921
 514.4	21981
 514.9	22061
 515.5	21935
 516.0	22023
 516.6	21984
 517.1	22041
 517.6	22030
 518.2	22001
 518.7	21937
 519.3	22009
 519.8	22059
 520.3	22062
 520.9	22011
 521.4	22023
 521.9	22103
 522.5	22017
 523.0	22055
 523.6	22099
 524.1	21933
 524.6	21997
 525.2	22024
 525.7	22063
 526.3	21967
 526.8	22066
 527.3	22000
 527.9	22021
 528.4	21986
 528.9	22041
 529.5	22051
 530.0	22024
 530.6	22069
 531.1	22050
 531.6	21940
 532.2	22053
 532.7	21993
 533.3	22014
 533.8	22131
 534.3	22151
 534.9	22125
 535.4	22042
 536.0	22105
 536.5	22131
 537.0	22067
 537.6	22081
 538.1	22117
 538.6	22127
 539.2	22042
 539.7	22049
 540.3	22162
 540.8	22102
 541.3	22047
 541.9	22076
 542.4	22071
 543.0	22148
 543.5	22100
 544.0	22060
 544.6	22117
 545.1	22124
 545.6	22166
 546.2	22150
 546.7	22047
 547.3	22115
 547.8	22091
 548.3	22151
 548.9	22056
 549.4	22062
 550.0	22024
 550.5	22106
 551.0	22154
 551.6	22094
 552.1	22121
 552.6	22125
 553.2	22091
 553.7	22065
 554.3	22110
 554.8	22185
 555.3	22012
 555.9	22087
 556.4	22039
 556.9	22145
 557.5	22171
 558.0	22111
 558.6	22077
 559.1	22150
 559.6	22124
 560.2	22111
 560.7	22107
 561.3	22063
 561.8	22030
 562.3	22161
 562.9	22129
 563.4	22151
 563.9	22135
 564.5	22139
 565.0	22114
 565.6	22136
 566.1	22129
 566.6	22132
 567.2	22113
 567.7	22225
 568.2	22114
 568.8	22130
 569.3	22092
 569.9	22175
 570.4	22159
 570.9	22119
 571.5	22110
 572.0	22100
 572.5	22156
 573.1	22092
 573.6	22143
 574.1	22131
 574.7	22118
 575.2	22078
 575.8	22113
 576.3	22190
 576.8	22140
 577.4	22145
 577.9	22162
 578.4	22089
 579.0	22095
 579.5	22203
 580.1	22107
 580.6	22097
 581.1	22176
 581.7	22185
 582.2	22096
 582.7	22139
 583.3	22182
 583.8	22139
 584.3	22073
 584.9	22130
 585.4	22127
 586.0	22091
 586.5	22119
 587.0	22064
 587.6	22148
 588.1	22087
 588.6	22163
 589.2	22097
 589.7	22108
 590.2	22095
 590.8	22097
 591.3	22122
 591.9	22065
 592.4	22140
 592.9	22068
 593.5	22065
 594.0	22063
 594.5	22093
 595.1	22081
 595.6	22065
 596.1	22134
 596.7	22105
 597.2	22159
 597.7	22086
 598.3	22109
 598.8	22081
 599.3	22103
 599.9	22085
 600.4	22084
 601.0	22103
 601.5	22095
 602.0	22085
 602.6	22026
 603.1	22040
 603.6	22050
 604.2	22165
 604.7	22045
 605.2	22123
 605.8	22025
 606.3	22035
 606.8	22115
 607.4	22083
 607.9	22119
 608.4	22045
 609.0	22076
 609.5	22113
 610.0	22077
 610.6	22172
 611.1	22066
 611.6	22082
 612.2	22068
 612.7	22129
 613.2	22108
 613.8	22008
 614.3	22033
 614.8	22078
 615.4	21977
 615.9	22063
 616.4	22110
 617.0	22035
 617.5	22131
 618.0	22125
 618.6	22017
 619.1	22037
 619.6	22102
 620.2	22069
 620.7	22114
 621.2	22049
 621.8	22076
 622.3	22087
 622.8	22022
 623.4	22047
 623.9	22102
 624.4	22065
 625.0	22059
 625.5	22045
 626.0	22059
 626.6	22113
 627.1	22104
 627.6	22051
 628.2	22013
 628.7	22047
 629.2	22034
 629.8	22071
 630.3	22086
 630.8	22075
 631.4	22067
 631.9	22103
 632.4	22000
 632.9	22045
 633.5	22050
 634.0	22013
 634.5	22118
 635.1	22051
 635.6	22044
 636.1	22034
 636.7	22109
 637.2	22121
 637.7	22024
 638.3	22145
 638.8	22154
 639.3	22173
 639.8	22121
 640.4	22147
 640.9	22179
 641.4	22078
 642.0	22077
 642.5	22103
 643.0	22079
 643.6	22171
 644.1	22135
 644.6	22141
 645.1	22189
 645.7	22155
 646.2	22111
 646.7	22130
 647.3	22169
 647.8	22163
 648.3	22139
 648.9	22167
 649.4	22062
 649.9	22133
 650.4	22140
 651.0	22176
 651.5	22181
 652.0	22237
 652.6	22163
 653.1	22235
 653.6	22125
 654.1	22203
 654.7	22139
 655.2	22215
 655.7	22251
 656.3	22257
 656.8	22178
 657.3	22229
 657.8	22158
 658.4	22148
 658.9	22143
 659.4	22228
 659.9	22211
 660.5	22177
 661.0	22223
 661.5	22273
 662.1	22216
 662.6	22226
 663.1	22178
 663.6	22265
 664.2	22211
 664.7	22182
 665.2	22090
 665.7	22239
 666.3	22202
 666.8	22211
 667.3	22217
 667.8	22175
 668.4	22205
 668.9	22227
 669.4	22209
 669.9	22250
 670.5	22181
 671.0	22205
 671.5	22150
 672.0	22233
 672.6	22235
 673.1	22279
 673.6	22178
 674.1	22221
 674.7	22220
 675.2	22277
 675.7	22118
 676.2	22135
 676.8	22209
 677.3	22237
 677.8	22161
 678.3	22294
 678.9	22219
 679.4	22169
 679.9	22244
 680.4	22251
 681.0	22220
 681.5	22269
 682.0	22241
 682.5	22279
 683.1	22177
 683.6	22243
 684.1	22179
 684.6	22301
 685.1	22231
 685.7	22260
 686.2	22236
 686.7	22191
 687.2	22179
 687.8	22270
 688.3	22203
 688.8	22233
 689.3	22172
 689.8	22205
 690.4	22201
 690.9	22211
 691.4	22203
 691.9	22240
 692.4	22191
 693.0	22268
 693.5	22238
 694.0	22214
 694.5	22212
 695.1	22184
 695.6	22140
 696.1	22221
 696.6	22201
 697.1	22224
 697.7	22251
 698.2	22176
 698.7	22211
 699.2	22167
 699.7	22181
 700.3	22161
 700.8	22135
 701.3	22266
 701.8	22225
 702.3	22167
 702.8	22173
 703.4	22142
 703.9	22171
 704.4	22174
 704.9	22147
 705.4	22149
 706.0	22267
 706.5	22263
 707.0	22171
 707.5	22166
 708.0	22211
 708.5	22163
 709.1	22247
 709.6	22214
 710.1	22186
 710.6	22165
 711.1	22173
 711.7	22205
 712.2	22213
 712.7	22234
 713.2	22217
 713.7	22230
 714.2	22175
 714.8	22278
 715.3	22225
 715.8	22235
 716.3	22242
 716.8	22149
 717.3	22132
 717.8	22261
 718.4	22275
 718.9	22205
 719.4	22297
 719.9	22193
 720.4	22239
 720.9	22249
 721.4	22239
 722.0	22264
 722.5	22248
 723.0	22231
 723.5	22242
 724.0	22196
 724.5	22179
 725.0	22206
 725.6	22123
 726.1	22179
 726.6	22307
 727.1	22235
 727.6	22283
 728.1	22299
 728.6	22243
 729.1	22229
 729.7	22217
 730.2	22247
 730.7	22280
 731.2	22316
 731.7	22302
 732.2	22310
 732.7	22283
 733.2	22331
 733.8	22311
 734.3	22321
 734.8	22285
 735.3	22303
 735.8	22287
 736.3	22241
 736.8	22279
 737.3	22324
 737.8	22267
 738.4	22253
 738.9	22191
 739.4	22286
 739.9	22273
 740.4	22268
 740.9	22251
 741.4	22255
 741.9	22249
 742.4	22268
 742.9	22246
 743.4	22356
 744.0	22267
 744.5	22266
 745.0	22283
 745.5	22381
 746.0	22353
 746.5	22355
 747.0	22303
 747.5	22296
 748.0	22265
 748.5	22290
 749.0	22307
 749.5	22423
 750.0	22238
 750.5	22318
 751.1	22335
 751.6	22343
 752.1	22346
 752.6	22308
 753.1	22347
 753.6	22287
 754.1	22263
 754.6	22324
 755.1	22283
 755.6	22307
 756.1	22221
 756.6	22345
 757.1	22314
 757.6	22308
 758.1	22289
 758.6	22316
 759.1	22247
 759.6	22305
 760.1	22255
 760.7	22230
 761.2	22321
 761.7	22268
 762.2	22261
 762.7	22332
 763.2	22175
 763.7	22299
 764.2	22229
 764.7	22246
 765.2	22297
 765.7	22278
 766.2	22241
 766.7	22308
 767.2	22269
 767.7	22294
 768.2	22285
 768.7	22251
 769.2	22256
 769.7	22323
 770.2	22295
 770.7	22301
 771.2	22285
 771.7	22268
 772.2	22291
 772.7	22356
 773.2	22333
 773.7	22294
 774.2	22238
 774.7	22305
 775.2	22305
 775.7	22280
 776.2	22282
 776.7	22317
 777.2	22238
 777.7	22335
 778.2	22315
 778.7	22362
 779.2	22375
 779.7	22419
 780.2	22238
 780.7	22331
 781.2	22341
 781.7	22420
 782.2	22327
 782.6	22418
 783.1	22435
 783.6	22394
 784.1	22365
 784.6	22351
 785.1	22369
 785.6	22359
 786.1	22407
 786.6	22429
 787.1	22367
 787.6	22375
 788.1	22371
 788.6	22359
 789.1	22351
 789.6	22405
 790.1	22431
 790.6	22435
 791.1	22332
 791.6	22349
 792.0	22376
 792.5	22434
 793.0	22419
 793.5	22422
 794.0	22361
 794.5	22467
 795.0	22451
 795.5	22431
 796.0	22464
 796.5	22396
 797.0	22443
 797.5	22503
 798.0	22354
 798.4	22406
 798.9	22405
 799.4	22439
 799.9	22460
 800.4	22316
 800.9	22441
 801.4	22533
 801.9	22507
 802.4	22432
 802.9	22522
 803.3	22531
 803.8	22506
 804.3	22453
 804.8	22536
 805.3	22503
 805.8	22504
 806.3	22509
 806.8	22505
 807.2	22515
 807.7	22499
 808.2	22541
 808.7	22459
 809.2	22485
 809.7	22430
 810.2	22519
 810.7	22455
 811.1	22491
 811.6	22506
 812.1	22467
 812.6	22427
 813.1	22493
 813.6	22525
 814.1	22507
 814.5	22473
 815.0	22512
 815.5	22478
 816.0	22443
 816.5	22524
 817.0	22478
 817.4	22468
 817.9	22511
 818.4	22445
 818.9	22553
 819.4	22510
 819.9	22489
 820.3	22463
 820.8	22474
 821.3	22493
 821.8	22494
 822.3	22453
 822.7	22444
 823.2	22513
 823.7	22467
 824.2	22478
 824.7	22456
 825.2	22487
 825.6	22473
 826.1	22467
 826.6	22533
 827.1	22521
 827.6	22515
 828.0	22454
 828.5	22428
 829.0	22481
 829.5	22426
 829.9	22435
 830.4	22506
 830.9	22495
 831.4	22523
 831.9	22477
 832.3	22569
 832.8	22510
 833.3	22513
 833.8	22605
 834.2	22601
 834.7	22430
 835.2	22537
 835.7	22542
 836.1	22547
 836.6	22531
 837.1	22534
 837.6	22547
 838.0	22589
 838.5	22621
 839.0	22623
 839.5	22620
 839.9	22535
 840.4	22550
 840.9	22514
 841.4	22559
 841.8	22591
 842.3	22609
 842.8	22633
 843.3	22635
 843.7	22523
 844.2	22519
 844.7	22618
 845.1	22593
 845.6	22505
 846.1	22535
 846.6	22575
 847.0	22459
 847.5	22525
 848.0	22513
 848.4	22563
 848.9	22521
 849.4	22510
 849.8	22545
 850.3	22545
 850.8	22599
 851.3	22566
 851.7	22559
 852.2	22569
 852.7	22565
 853.1	22551
 853.6	22501
 854.1	22547
 854.5	22512
 855.0	22509
 855.5	22505
 855.9	22579
 856.4	22569
 856.9	22479
 857.3	22562
 857.8	22528
 858.3	22577
 858.7	22540
 859.2	22566
 859.7	22547
 860.1	22622
 860.6	22599
 861.1	22536
 861.5	22596
 862.0	22606
 862.4	22583
 862.9	22546
 863.4	22591
 863.8	22605
 864.3	22611
 864.8	22529
 865.2	22590
 865.7	22610
 866.1	22639
 866.6	22558
 867.1	22647
 867.5	22633
 868.0	22620
 868.5	22568
 868.9	22577
 869.4	22695
 869.8	22652
 870.3	22606
 870.8	22682
 871.2	22628
 871.7	22625
 872.1	22571
 872.6	22619
 873.0	22582
 873.5	22663
 874.0	22632
 874.4	22481
 874.9	22499
 875.3	22440
 875.8	22327
 876.2	22089
 876.7	21953
 877.2	21622
 877.6	21251
 878.1	20943
