#xlabel Wavelength (nm)
#ylabel Spectrometer Array Counts
#title Exposure time is 12000 ms
## lambda	counts
 349.8	20581
 350.3	20833
 350.8	21096
 351.3	21324
 351.9	21466
 352.4	21610
 352.9	21717
 353.4	21699
 354.0	21719
 354.5	21787
 355.0	21795
 355.5	21822
 356.0	21780
 356.6	21735
 357.1	21784
 357.6	21759
 358.1	21789
 358.7	21721
 359.2	21734
 359.7	21743
 360.2	21781
 360.8	21743
 361.3	21840
 361.8	21771
 362.3	21803
 362.9	21758
 363.4	21839
 363.9	21833
 364.4	21865
 364.9	21757
 365.5	21842
 366.0	21816
 366.5	21763
 367.0	21813
 367.6	21829
 368.1	21838
 368.6	21756
 369.1	21817
 369.7	21870
 370.2	21775
 370.7	21774
 371.2	21822
 371.8	21879
 372.3	21784
 372.8	21861
 373.3	21874
 373.9	21809
 374.4	21821
 374.9	21869
 375.5	21745
 376.0	21875
 376.5	21824
 377.0	21853
 377.6	21793
 378.1	21876
 378.6	21789
 379.1	21797
 379.7	21770
 380.2	21845
 380.7	21841
 381.2	21786
 381.8	21770
 382.3	21805
 382.8	21783
 383.4	21835
 383.9	21771
 384.4	21939
 384.9	21823
 385.5	21837
 386.0	21845
 386.5	21916
 387.1	21840
 387.6	21854
 388.1	21838
 388.6	21860
 389.2	21838
 389.7	21859
 390.2	21829
 390.8	21925
 391.3	21875
 391.8	21859
 392.3	21831
 392.9	21813
 393.4	21801
 393.9	21867
 394.5	21861
 395.0	21795
 395.5	21813
 396.0	21806
 396.6	21761
 397.1	21859
 397.6	21852
 398.2	21845
 398.7	21837
 399.2	21948
 399.8	21796
 400.3	21862
 400.8	21908
 401.3	21867
 401.9	21879
 402.4	21901
 402.9	21878
 403.5	21902
 404.0	21875
 404.5	21812
 405.1	21812
 405.6	21913
 406.1	21868
 406.7	21862
 407.2	21862
 407.7	21937
 408.2	21915
 408.8	21912
 409.3	21934
 409.8	21972
 410.4	21920
 410.9	21916
 411.4	21847
 412.0	21911
 412.5	21959
 413.0	21894
 413.6	21934
 414.1	21881
 414.6	21902
 415.2	21948
 415.7	21869
 416.2	21911
 416.8	21885
 417.3	21861
 417.8	21870
 418.4	21960
 418.9	21885
 419.4	22029
 420.0	21881
 420.5	21953
 421.0	21874
 421.5	21960
 422.1	21927
 422.6	21980
 423.1	22003
 423.7	21957
 424.2	21929
 424.7	21965
 425.3	21934
 425.8	21951
 426.3	21926
 426.9	21981
 427.4	21910
 427.9	22035
 428.5	21953
 429.0	21985
 429.6	21930
 430.1	22011
 430.6	21985
 431.2	21903
 431.7	22005
 432.2	21944
 432.8	21907
 433.3	22010
 433.8	22001
 434.4	21946
 434.9	21946
 435.4	21990
 436.0	21951
 436.5	21936
 437.0	22002
 437.6	21959
 438.1	22011
 438.6	22009
 439.2	22034
 439.7	22025
 440.2	21954
 440.8	21987
 441.3	21987
 441.8	21979
 442.4	21941
 442.9	21978
 443.5	22024
 444.0	22003
 444.5	22027
 445.1	21925
 445.6	21957
 446.1	21976
 446.7	21983
 447.2	21998
 447.7	21972
 448.3	22035
 448.8	21975
 449.3	22000
 449.9	21920
 450.4	22021
 450.9	22041
 451.5	22025
 452.0	21971
 452.6	21972
 453.1	22022
 453.6	22013
 454.2	21865
 454.7	21930
 455.2	21946
 455.8	21985
 456.3	21907
 456.8	22035
 457.4	21943
 457.9	21941
 458.5	21995
 459.0	21948
 459.5	21984
 460.1	21930
 460.6	21977
 461.1	21958
 461.7	22010
 462.2	21963
 462.7	22004
 463.3	21913
 463.8	21991
 464.4	22058
 464.9	21985
 465.4	22057
 466.0	21934
 466.5	22019
 467.0	21931
 467.6	21995
 468.1	22085
 468.7	21993
 469.2	21901
 469.7	22003
 470.3	21967
 470.8	22000
 471.3	21962
 471.9	21897
 472.4	21951
 473.0	21984
 473.5	21991
 474.0	21972
 474.6	21964
 475.1	21951
 475.6	22020
 476.2	22023
 476.7	21987
 477.3	22040
 477.8	21962
 478.3	21875
 478.9	22097
 479.4	21957
 479.9	21965
 480.5	21938
 481.0	21952
 481.6	21969
 482.1	22027
 482.6	21984
 483.2	21982
 483.7	22099
 484.2	22017
 484.8	21827
 485.3	21920
 485.9	22001
 486.4	21943
 486.9	21961
 487.5	21897
 488.0	21897
 488.6	21960
 489.1	21963
 489.6	22017
 490.2	22000
 490.7	21949
 491.2	21909
 491.8	21965
 492.3	21906
 492.9	21965
 493.4	21966
 493.9	21983
 494.5	21983
 495.0	22061
 495.6	21967
 496.1	21981
 496.6	22049
 497.2	21951
 497.7	21907
 498.2	22019
 498.8	22044
 499.3	21940
 499.9	22004
 500.4	21998
 500.9	21971
 501.5	21955
 502.0	22025
 502.6	21983
 503.1	22069
 503.6	22022
 504.2	21953
 504.7	21946
 505.2	22003
 505.8	21968
 506.3	22049
 506.9	22035
 507.4	21970
 507.9	21920
 508.5	21944
 509.0	21971
 509.6	22026
 510.1	21979
 510.6	21994
 511.2	22003
 511.7	21963
 512.2	22025
 512.8	22032
 513.3	21972
 513.9	21946
 514.4	22003
 514.9	22081
 515.5	21961
 516.0	22043
 516.6	22009
 517.1	22067
 517.6	22049
 518.2	22030
 518.7	21963
 519.3	22032
 519.8	22084
 520.3	22080
 520.9	22036
 521.4	22046
 521.9	22127
 522.5	22039
 523.0	22073
 523.6	22121
 524.1	21956
 524.6	22021
 525.2	22047
 525.7	22083
 526.3	21983
 526.8	22082
 527.3	22014
 527.9	22040
 528.4	22007
 528.9	22064
 529.5	22072
 530.0	22044
 530.6	22085
 531.1	22072
 531.6	21956
 532.2	22073
 532.7	22013
 533.3	22035
 533.8	22159
 534.3	22177
 534.9	22148
 535.4	22061
 536.0	22129
 536.5	22153
 537.0	22087
 537.6	22108
 538.1	22145
 538.6	22156
 539.2	22071
 539.7	22073
 540.3	22187
 540.8	22125
 541.3	22071
 541.9	22101
 542.4	22095
 543.0	22164
 543.5	22115
 544.0	22085
 544.6	22141
 545.1	22147
 545.6	22197
 546.2	22170
 546.7	22067
 547.3	22139
 547.8	22115
 548.3	22175
 548.9	22079
 549.4	22082
 550.0	22054
 550.5	22124
 551.0	22178
 551.6	22116
 552.1	22142
 552.6	22149
 553.2	22113
 553.7	22085
 554.3	22127
 554.8	22205
 555.3	22036
 555.9	22105
 556.4	22062
 556.9	22164
 557.5	22192
 558.0	22133
 558.6	22101
 559.1	22172
 559.6	22143
 560.2	22136
 560.7	22136
 561.3	22088
 561.8	22049
 562.3	22178
 562.9	22150
 563.4	22175
 563.9	22159
 564.5	22164
 565.0	22144
 565.6	22160
 566.1	22153
 566.6	22155
 567.2	22137
 567.7	22250
 568.2	22139
 568.8	22157
 569.3	22119
 569.9	22196
 570.4	22180
 570.9	22141
 571.5	22134
 572.0	22123
 572.5	22177
 573.1	22117
 573.6	22169
 574.1	22151
 574.7	22138
 575.2	22099
 575.8	22138
 576.3	22215
 576.8	22167
 577.4	22167
 577.9	22183
 578.4	22114
 579.0	22119
 579.5	22229
 580.1	22124
 580.6	22120
 581.1	22196
 581.7	22211
 582.2	22123
 582.7	22165
 583.3	22208
 583.8	22165
 584.3	22095
 584.9	22161
 585.4	22154
 586.0	22114
 586.5	22139
 587.0	22085
 587.6	22175
 588.1	22111
 588.6	22191
 589.2	22123
 589.7	22136
 590.2	22121
 590.8	22117
 591.3	22145
 591.9	22085
 592.4	22165
 592.9	22094
 593.5	22087
 594.0	22087
 594.5	22115
 595.1	22102
 595.6	22082
 596.1	22155
 596.7	22124
 597.2	22177
 597.7	22109
 598.3	22129
 598.8	22104
 599.3	22119
 599.9	22107
 600.4	22105
 601.0	22121
 601.5	22111
 602.0	22105
 602.6	22041
 603.1	22064
 603.6	22067
 604.2	22186
 604.7	22068
 605.2	22146
 605.8	22037
 606.3	22058
 606.8	22135
 607.4	22103
 607.9	22137
 608.4	22067
 609.0	22099
 609.5	22136
 610.0	22097
 610.6	22187
 611.1	22091
 611.6	22105
 612.2	22090
 612.7	22154
 613.2	22128
 613.8	22034
 614.3	22057
 614.8	22101
 615.4	21999
 615.9	22084
 616.4	22131
 617.0	22055
 617.5	22154
 618.0	22147
 618.6	22039
 619.1	22054
 619.6	22126
 620.2	22090
 620.7	22143
 621.2	22077
 621.8	22097
 622.3	22114
 622.8	22048
 623.4	22072
 623.9	22126
 624.4	22089
 625.0	22086
 625.5	22076
 626.0	22082
 626.6	22134
 627.1	22134
 627.6	22070
 628.2	22035
 628.7	22071
 629.2	22054
 629.8	22095
 630.3	22112
 630.8	22098
 631.4	22091
 631.9	22131
 632.4	22017
 632.9	22062
 633.5	22071
 634.0	22040
 634.5	22138
 635.1	22075
 635.6	22066
 636.1	22057
 636.7	22131
 637.2	22140
 637.7	22049
 638.3	22171
 638.8	22171
 639.3	22193
 639.8	22141
 640.4	22165
 640.9	22202
 641.4	22098
 642.0	22099
 642.5	22129
 643.0	22094
 643.6	22196
 644.1	22155
 644.6	22159
 645.1	22210
 645.7	22178
 646.2	22131
 646.7	22153
 647.3	22185
 647.8	22183
 648.3	22162
 648.9	22185
 649.4	22088
 649.9	22163
 650.4	22163
 651.0	22201
 651.5	22205
 652.0	22257
 652.6	22180
 653.1	22254
 653.6	22152
 654.1	22227
 654.7	22156
 655.2	22241
 655.7	22275
 656.3	22282
 656.8	22200
 657.3	22256
 657.8	22181
 658.4	22166
 658.9	22169
 659.4	22251
 659.9	22235
 660.5	22196
 661.0	22247
 661.5	22294
 662.1	22243
 662.6	22249
 663.1	22201
 663.6	22286
 664.2	22235
 664.7	22203
 665.2	22113
 665.7	22263
 666.3	22225
 666.8	22235
 667.3	22243
 667.8	22191
 668.4	22234
 668.9	22247
 669.4	22233
 669.9	22273
 670.5	22202
 671.0	22225
 671.5	22175
 672.0	22249
 672.6	22261
 673.1	22296
 673.6	22201
 674.1	22247
 674.7	22243
 675.2	22302
 675.7	22146
 676.2	22162
 676.8	22235
 677.3	22259
 677.8	22181
 678.3	22315
 678.9	22237
 679.4	22190
 679.9	22269
 680.4	22276
 681.0	22238
 681.5	22292
 682.0	22265
 682.5	22301
 683.1	22204
 683.6	22263
 684.1	22199
 684.6	22329
 685.1	22257
 685.7	22281
 686.2	22255
 686.7	22219
 687.2	22203
 687.8	22290
 688.3	22227
 688.8	22257
 689.3	22192
 689.8	22225
 690.4	22224
 690.9	22231
 691.4	22225
 691.9	22262
 692.4	22209
 693.0	22295
 693.5	22263
 694.0	22240
 694.5	22231
 695.1	22210
 695.6	22163
 696.1	22246
 696.6	22228
 697.1	22253
 697.7	22278
 698.2	22197
 698.7	22232
 699.2	22193
 699.7	22202
 700.3	22187
 700.8	22158
 701.3	22291
 701.8	22243
 702.3	22185
 702.8	22199
 703.4	22166
 703.9	22188
 704.4	22198
 704.9	22171
 705.4	22169
 706.0	22291
 706.5	22290
 707.0	22195
 707.5	22189
 708.0	22232
 708.5	22185
 709.1	22273
 709.6	22236
 710.1	22207
 710.6	22183
 711.1	22193
 711.7	22234
 712.2	22238
 712.7	22253
 713.2	22238
 713.7	22250
 714.2	22196
 714.8	22299
 715.3	22245
 715.8	22249
 716.3	22261
 716.8	22169
 717.3	22160
 717.8	22287
 718.4	22295
 718.9	22219
 719.4	22319
 719.9	22216
 720.4	22259
 720.9	22272
 721.4	22262
 722.0	22287
 722.5	22264
 723.0	22247
 723.5	22265
 724.0	22219
 724.5	22209
 725.0	22225
 725.6	22150
 726.1	22200
 726.6	22335
 727.1	22259
 727.6	22309
 728.1	22322
 728.6	22267
 729.1	22257
 729.7	22237
 730.2	22266
 730.7	22308
 731.2	22343
 731.7	22331
 732.2	22334
 732.7	22306
 733.2	22357
 733.8	22330
 734.3	22341
 734.8	22305
 735.3	22327
 735.8	22308
 736.3	22265
 736.8	22297
 737.3	22347
 737.8	22284
 738.4	22271
 738.9	22216
 739.4	22312
 739.9	22297
 740.4	22295
 740.9	22277
 741.4	22279
 741.9	22275
 742.4	22296
 742.9	22276
 743.4	22385
 744.0	22291
 744.5	22291
 745.0	22303
 745.5	22405
 746.0	22376
 746.5	22388
 747.0	22322
 747.5	22316
 748.0	22293
 748.5	22309
 749.0	22333
 749.5	22447
 750.0	22259
 750.5	22341
 751.1	22356
 751.6	22369
 752.1	22367
 752.6	22333
 753.1	22371
 753.6	22312
 754.1	22285
 754.6	22346
 755.1	22307
 755.6	22323
 756.1	22245
 756.6	22373
 757.1	22338
 757.6	22337
 758.1	22313
 758.6	22334
 759.1	22267
 759.6	22326
 760.1	22280
 760.7	22253
 761.2	22349
 761.7	22289
 762.2	22277
 762.7	22355
 763.2	22203
 763.7	22317
 764.2	22250
 764.7	22266
 765.2	22315
 765.7	22303
 766.2	22262
 766.7	22330
 767.2	22282
 767.7	22313
 768.2	22301
 768.7	22278
 769.2	22283
 769.7	22344
 770.2	22315
 770.7	22321
 771.2	22303
 771.7	22291
 772.2	22313
 772.7	22375
 773.2	22358
 773.7	22315
 774.2	22255
 774.7	22327
 775.2	22321
 775.7	22300
 776.2	22305
 776.7	22338
 777.2	22252
 777.7	22361
 778.2	22339
 778.7	22383
 779.2	22399
 779.7	22443
 780.2	22258
 780.7	22349
 781.2	22357
 781.7	22445
 782.2	22352
 782.6	22441
 783.1	22451
 783.6	22415
 784.1	22386
 784.6	22372
 785.1	22385
 785.6	22381
 786.1	22427
 786.6	22451
 787.1	22384
 787.6	22392
 788.1	22391
 788.6	22383
 789.1	22373
 789.6	22425
 790.1	22451
 790.6	22455
 791.1	22350
 791.6	22370
 792.0	22402
 792.5	22453
 793.0	22440
 793.5	22448
 794.0	22384
 794.5	22490
 795.0	22475
 795.5	22452
 796.0	22475
 796.5	22420
 797.0	22465
 797.5	22527
 798.0	22372
 798.4	22427
 798.9	22425
 799.4	22460
 799.9	22483
 800.4	22335
 800.9	22469
 801.4	22554
 801.9	22526
 802.4	22447
 802.9	22537
 803.3	22553
 803.8	22526
 804.3	22471
 804.8	22561
 805.3	22515
 805.8	22518
 806.3	22528
 806.8	22525
 807.2	22531
 807.7	22523
 808.2	22560
 808.7	22484
 809.2	22510
 809.7	22451
 810.2	22531
 810.7	22478
 811.1	22511
 811.6	22526
 812.1	22483
 812.6	22452
 813.1	22514
 813.6	22546
 814.1	22527
 814.5	22489
 815.0	22534
 815.5	22497
 816.0	22461
 816.5	22544
 817.0	22495
 817.4	22485
 817.9	22530
 818.4	22468
 818.9	22574
 819.4	22528
 819.9	22510
 820.3	22478
 820.8	22494
 821.3	22511
 821.8	22522
 822.3	22476
 822.7	22465
 823.2	22540
 823.7	22486
 824.2	22497
 824.7	22478
 825.2	22512
 825.6	22491
 826.1	22483
 826.6	22550
 827.1	22540
 827.6	22539
 828.0	22475
 828.5	22451
 829.0	22502
 829.5	22443
 829.9	22453
 830.4	22531
 830.9	22511
 831.4	22542
 831.9	22495
 832.3	22592
 832.8	22533
 833.3	22533
 833.8	22632
 834.2	22622
 834.7	22451
 835.2	22561
 835.7	22565
 836.1	22567
 836.6	22556
 837.1	22558
 837.6	22567
 838.0	22617
 838.5	22645
 839.0	22645
 839.5	22641
 839.9	22554
 840.4	22565
 840.9	22532
 841.4	22581
 841.8	22612
 842.3	22629
 842.8	22651
 843.3	22655
 843.7	22548
 844.2	22537
 844.7	22645
 845.1	22611
 845.6	22528
 846.1	22559
 846.6	22594
 847.0	22480
 847.5	22546
 848.0	22534
 848.4	22578
 848.9	22543
 849.4	22534
 849.8	22562
 850.3	22567
 850.8	22624
 851.3	22581
 851.7	22584
 852.2	22591
 852.7	22587
 853.1	22571
 853.6	22524
 854.1	22569
 854.5	22535
 855.0	22531
 855.5	22528
 855.9	22600
 856.4	22587
 856.9	22503
 857.3	22576
 857.8	22544
 858.3	22597
 858.7	22559
 859.2	22595
 859.7	22575
 860.1	22642
 860.6	22621
 861.1	22562
 861.5	22614
 862.0	22626
 862.4	22599
 862.9	22564
 863.4	22614
 863.8	22624
 864.3	22632
 864.8	22546
 865.2	22602
 865.7	22626
 866.1	22656
 866.6	22569
 867.1	22659
 867.5	22643
 868.0	22633
 868.5	22586
 868.9	22590
 869.4	22714
 869.8	22667
 870.3	22618
 870.8	22702
 871.2	22653
 871.7	22660
 872.1	22606
 872.6	22671
 873.0	22640
 873.5	22739
 874.0	22719
 874.4	22579
 874.9	22605
 875.3	22539
 875.8	22429
 876.2	22178
 876.7	22021
 877.2	21671
 877.6	21274
 878.1	20940
