#xlabel Wavelength (nm)
#ylabel Spectrometer Array Counts
#title Exposure time is 10000 ms
## lambda	counts
 349.8	16738
 350.3	16971
 350.8	17202
 351.3	17369
 351.9	17460
 352.4	17576
 352.9	17647
 353.4	17619
 354.0	17628
 354.5	17672
 355.0	17686
 355.5	17707
 356.0	17666
 356.6	17643
 357.1	17697
 357.6	17678
 358.1	17703
 358.7	17643
 359.2	17657
 359.7	17675
 360.2	17714
 360.8	17671
 361.3	17766
 361.8	17706
 362.3	17735
 362.9	17700
 363.4	17761
 363.9	17768
 364.4	17795
 364.9	17704
 365.5	17774
 366.0	17755
 366.5	17713
 367.0	17756
 367.6	17782
 368.1	17776
 368.6	17710
 369.1	17770
 369.7	17821
 370.2	17746
 370.7	17741
 371.2	17784
 371.8	17833
 372.3	17755
 372.8	17831
 373.3	17839
 373.9	17783
 374.4	17805
 374.9	17841
 375.5	17745
 376.0	17859
 376.5	17830
 377.0	17847
 377.6	17788
 378.1	17869
 378.6	17805
 379.1	17803
 379.7	17790
 380.2	17855
 380.7	17857
 381.2	17814
 381.8	17803
 382.3	17844
 382.8	17823
 383.4	17869
 383.9	17818
 384.4	17965
 384.9	17875
 385.5	17898
 386.0	17892
 386.5	17965
 387.1	17889
 387.6	17915
 388.1	17918
 388.6	17929
 389.2	17916
 389.7	17935
 390.2	17915
 390.8	17997
 391.3	17965
 391.8	17967
 392.3	17955
 392.9	17951
 393.4	17937
 393.9	18006
 394.5	18009
 395.0	17963
 395.5	17977
 396.0	17981
 396.6	17949
 397.1	18040
 397.6	18032
 398.2	18036
 398.7	18035
 399.2	18119
 399.8	17995
 400.3	18060
 400.8	18104
 401.3	18080
 401.9	18088
 402.4	18109
 402.9	18104
 403.5	18124
 404.0	18115
 404.5	18069
 405.1	18073
 405.6	18165
 406.1	18137
 406.7	18147
 407.2	18147
 407.7	18231
 408.2	18225
 408.8	18224
 409.3	18253
 409.8	18302
 410.4	18262
 410.9	18263
 411.4	18213
 412.0	18277
 412.5	18325
 413.0	18281
 413.6	18322
 414.1	18283
 414.6	18316
 415.2	18354
 415.7	18294
 416.2	18342
 416.8	18324
 417.3	18313
 417.8	18333
 418.4	18424
 418.9	18360
 419.4	18486
 420.0	18378
 420.5	18443
 421.0	18385
 421.5	18467
 422.1	18447
 422.6	18499
 423.1	18521
 423.7	18492
 424.2	18481
 424.7	18515
 425.3	18496
 425.8	18514
 426.3	18500
 426.9	18559
 427.4	18503
 427.9	18604
 428.5	18551
 429.0	18597
 429.6	18557
 430.1	18627
 430.6	18630
 431.2	18577
 431.7	18671
 432.2	18644
 432.8	18621
 433.3	18730
 433.8	18733
 434.4	18715
 434.9	18727
 435.4	18775
 436.0	18763
 436.5	18759
 437.0	18824
 437.6	18807
 438.1	18860
 438.6	18864
 439.2	18893
 439.7	18889
 440.2	18831
 440.8	18868
 441.3	18866
 441.8	18869
 442.4	18841
 442.9	18869
 443.5	18900
 444.0	18891
 444.5	18915
 445.1	18837
 445.6	18871
 446.1	18896
 446.7	18917
 447.2	18934
 447.7	18921
 448.3	18993
 448.8	18961
 449.3	19006
 449.9	18965
 450.4	19054
 450.9	19099
 451.5	19103
 452.0	19081
 452.6	19110
 453.1	19171
 453.6	19183
 454.2	19087
 454.7	19165
 455.2	19191
 455.8	19237
 456.3	19187
 456.8	19311
 457.4	19245
 457.9	19263
 458.5	19308
 459.0	19271
 459.5	19309
 460.1	19266
 460.6	19315
 461.1	19301
 461.7	19347
 462.2	19295
 462.7	19335
 463.3	19269
 463.8	19342
 464.4	19406
 464.9	19354
 465.4	19415
 466.0	19326
 466.5	19393
 467.0	19334
 467.6	19405
 468.1	19489
 468.7	19435
 469.2	19375
 469.7	19468
 470.3	19455
 470.8	19499
 471.3	19475
 471.9	19447
 472.4	19506
 473.0	19549
 473.5	19571
 474.0	19575
 474.6	19582
 475.1	19578
 475.6	19653
 476.2	19663
 476.7	19649
 477.3	19710
 477.8	19652
 478.3	19595
 478.9	19795
 479.4	19693
 479.9	19706
 480.5	19700
 481.0	19735
 481.6	19757
 482.1	19822
 482.6	19809
 483.2	19826
 483.7	19943
 484.2	19882
 484.8	19737
 485.3	19838
 485.9	19916
 486.4	19885
 486.9	19906
 487.5	19881
 488.0	19888
 488.6	19947
 489.1	19962
 489.6	20020
 490.2	20018
 490.7	19987
 491.2	19965
 491.8	20013
 492.3	19975
 492.9	20024
 493.4	20037
 493.9	20051
 494.5	20051
 495.0	20113
 495.6	20037
 496.1	20047
 496.6	20103
 497.2	20024
 497.7	19990
 498.2	20073
 498.8	20096
 499.3	20019
 499.9	20069
 500.4	20061
 500.9	20054
 501.5	20053
 502.0	20123
 502.6	20111
 503.1	20195
 503.6	20170
 504.2	20139
 504.7	20153
 505.2	20225
 505.8	20225
 506.3	20317
 506.9	20337
 507.4	20319
 507.9	20315
 508.5	20358
 509.0	20409
 509.6	20493
 510.1	20478
 510.6	20526
 511.2	20555
 511.7	20565
 512.2	20639
 512.8	20666
 513.3	20648
 513.9	20651
 514.4	20710
 514.9	20785
 515.5	20693
 516.0	20768
 516.6	20743
 517.1	20793
 517.6	20770
 518.2	20745
 518.7	20680
 519.3	20725
 519.8	20763
 520.3	20754
 520.9	20701
 521.4	20699
 521.9	20746
 522.5	20665
 523.0	20678
 523.6	20703
 524.1	20566
 524.6	20618
 525.2	20637
 525.7	20676
 526.3	20603
 526.8	20691
 527.3	20645
 527.9	20674
 528.4	20663
 528.9	20726
 529.5	20748
 530.0	20744
 530.6	20803
 531.1	20818
 531.6	20751
 532.2	20876
 532.7	20855
 533.3	20903
 533.8	21031
 534.3	21081
 534.9	21095
 535.4	21057
 536.0	21142
 536.5	21201
 537.0	21181
 537.6	21223
 538.1	21290
 538.6	21319
 539.2	21279
 539.7	21305
 540.3	21410
 540.8	21387
 541.3	21358
 541.9	21393
 542.4	21405
 543.0	21468
 543.5	21431
 544.0	21420
 544.6	21459
 545.1	21470
 545.6	21502
 546.2	21486
 546.7	21399
 547.3	21454
 547.8	21433
 548.3	21479
 548.9	21398
 549.4	21399
 550.0	21364
 550.5	21419
 551.0	21463
 551.6	21408
 552.1	21429
 552.6	21428
 553.2	21392
 553.7	21371
 554.3	21412
 554.8	21482
 555.3	21342
 555.9	21415
 556.4	21378
 556.9	21473
 557.5	21504
 558.0	21471
 558.6	21453
 559.1	21530
 559.6	21515
 560.2	21527
 560.7	21535
 561.3	21509
 561.8	21498
 562.3	21616
 562.9	21607
 563.4	21643
 563.9	21639
 564.5	21651
 565.0	21640
 565.6	21675
 566.1	21676
 566.6	21676
 567.2	21668
 567.7	21771
 568.2	21684
 568.8	21695
 569.3	21676
 569.9	21745
 570.4	21733
 570.9	21711
 571.5	21709
 572.0	21703
 572.5	21762
 573.1	21706
 573.6	21766
 574.1	21763
 574.7	21760
 575.2	21739
 575.8	21784
 576.3	21857
 576.8	21837
 577.4	21851
 577.9	21869
 578.4	21845
 579.0	21858
 579.5	21963
 580.1	21897
 580.6	21921
 581.1	22004
 581.7	22028
 582.2	21980
 582.7	22029
 583.3	22075
 583.8	22065
 584.3	22017
 584.9	22080
 585.4	22085
 586.0	22074
 586.5	22111
 587.0	22081
 587.6	22157
 588.1	22113
 588.6	22187
 589.2	22137
 589.7	22157
 590.2	22147
 590.8	22137
 591.3	22166
 591.9	22114
 592.4	22167
 592.9	22095
 593.5	22087
 594.0	22069
 594.5	22081
 595.1	22060
 595.6	22032
 596.1	22075
 596.7	22031
 597.2	22067
 597.7	21999
 598.3	21998
 598.8	21963
 599.3	21973
 599.9	21939
 600.4	21927
 601.0	21925
 601.5	21907
 602.0	21897
 602.6	21855
 603.1	21866
 603.6	21865
 604.2	21957
 604.7	21864
 605.2	21935
 605.8	21860
 606.3	21886
 606.8	21957
 607.4	21947
 607.9	21980
 608.4	21930
 609.0	21973
 609.5	22024
 610.0	22010
 610.6	22110
 611.1	22029
 611.6	22075
 612.2	22073
 612.7	22140
 613.2	22150
 613.8	22092
 614.3	22132
 614.8	22190
 615.4	22146
 615.9	22236
 616.4	22302
 617.0	22267
 617.5	22366
 618.0	22391
 618.6	22343
 619.1	22390
 619.6	22482
 620.2	22488
 620.7	22569
 621.2	22554
 621.8	22603
 622.3	22641
 622.8	22627
 623.4	22662
 623.9	22733
 624.4	22716
 625.0	22725
 625.5	22731
 626.0	22749
 626.6	22795
 627.1	22787
 627.6	22746
 628.2	22710
 628.7	22736
 629.2	22719
 629.8	22743
 630.3	22745
 630.8	22731
 631.4	22702
 631.9	22709
 632.4	22599
 632.9	22607
 633.5	22596
 634.0	22539
 634.5	22605
 635.1	22525
 635.6	22497
 636.1	22468
 636.7	22508
 637.2	22488
 637.7	22387
 638.3	22469
 638.8	22454
 639.3	22455
 639.8	22399
 640.4	22401
 640.9	22417
 641.4	22327
 642.0	22307
 642.5	22323
 643.0	22291
 643.6	22372
 644.1	22328
 644.6	22337
 645.1	22361
 645.7	22350
 646.2	22303
 646.7	22329
 647.3	22352
 647.8	22362
 648.3	22342
 648.9	22379
 649.4	22305
 649.9	22373
 650.4	22386
 651.0	22431
 651.5	22447
 652.0	22500
 652.6	22455
 653.1	22536
 653.6	22457
 654.1	22539
 654.7	22502
 655.2	22584
 655.7	22629
 656.3	22653
 656.8	22604
 657.3	22666
 657.8	22626
 658.4	22629
 658.9	22644
 659.4	22722
 659.9	22727
 660.5	22700
 661.0	22745
 661.5	22801
 662.1	22763
 662.6	22775
 663.1	22744
 663.6	22824
 664.2	22785
 664.7	22753
 665.2	22688
 665.7	22799
 666.3	22769
 666.8	22774
 667.3	22778
 667.8	22739
 668.4	22764
 668.9	22767
 669.4	22742
 669.9	22774
 670.5	22703
 671.0	22720
 671.5	22673
 672.0	22728
 672.6	22726
 673.1	22747
 673.6	22658
 674.1	22694
 674.7	22672
 675.2	22719
 675.7	22586
 676.2	22589
 676.8	22638
 677.3	22651
 677.8	22578
 678.3	22675
 678.9	22610
 679.4	22560
 679.9	22613
 680.4	22612
 681.0	22576
 681.5	22603
 682.0	22574
 682.5	22597
 683.1	22511
 683.6	22553
 684.1	22497
 684.6	22586
 685.1	22531
 685.7	22549
 686.2	22521
 686.7	22479
 687.2	22472
 687.8	22541
 688.3	22475
 688.8	22505
 689.3	22446
 689.8	22471
 690.4	22473
 690.9	22479
 691.4	22479
 691.9	22507
 692.4	22473
 693.0	22532
 693.5	22505
 694.0	22489
 694.5	22482
 695.1	22463
 695.6	22433
 696.1	22499
 696.6	22479
 697.1	22499
 697.7	22528
 698.2	22463
 698.7	22484
 699.2	22450
 699.7	22455
 700.3	22423
 700.8	22408
 701.3	22510
 701.8	22470
 702.3	22415
 702.8	22418
 703.4	22394
 703.9	22397
 704.4	22386
 704.9	22353
 705.4	22346
 706.0	22438
 706.5	22418
 707.0	22333
 707.5	22319
 708.0	22344
 708.5	22290
 709.1	22354
 709.6	22314
 710.1	22275
 710.6	22251
 711.1	22250
 711.7	22266
 712.2	22262
 712.7	22268
 713.2	22243
 713.7	22245
 714.2	22203
 714.8	22283
 715.3	22226
 715.8	22224
 716.3	22232
 716.8	22147
 717.3	22135
 717.8	22239
 718.4	22257
 718.9	22198
 719.4	22269
 719.9	22179
 720.4	22223
 720.9	22237
 721.4	22230
 722.0	22249
 722.5	22239
 723.0	22229
 723.5	22238
 724.0	22203
 724.5	22202
 725.0	22228
 725.6	22161
 726.1	22211
 726.6	22322
 727.1	22264
 727.6	22300
 728.1	22318
 728.6	22275
 729.1	22264
 729.7	22253
 730.2	22282
 730.7	22309
 731.2	22340
 731.7	22325
 732.2	22336
 732.7	22318
 733.2	22357
 733.8	22334
 734.3	22349
 734.8	22330
 735.3	22352
 735.8	22342
 736.3	22317
 736.8	22355
 737.3	22393
 737.8	22348
 738.4	22348
 738.9	22301
 739.4	22391
 739.9	22366
 740.4	22379
 740.9	22365
 741.4	22363
 741.9	22357
 742.4	22375
 742.9	22359
 743.4	22439
 744.0	22353
 744.5	22349
 745.0	22355
 745.5	22425
 746.0	22392
 746.5	22401
 747.0	22344
 747.5	22333
 748.0	22299
 748.5	22309
 749.0	22327
 749.5	22407
 750.0	22246
 750.5	22297
 751.1	22295
 751.6	22293
 752.1	22273
 752.6	22237
 753.1	22267
 753.6	22194
 754.1	22159
 754.6	22203
 755.1	22155
 755.6	22151
 756.1	22065
 756.6	22163
 757.1	22123
 757.6	22093
 758.1	22053
 758.6	22061
 759.1	21985
 759.6	22010
 760.1	21956
 760.7	21917
 761.2	21985
 761.7	21922
 762.2	21900
 762.7	21943
 763.2	21803
 763.7	21877
 764.2	21809
 764.7	21801
 765.2	21824
 765.7	21783
 766.2	21738
 766.7	21773
 767.2	21717
 767.7	21720
 768.2	21683
 768.7	21642
 769.2	21628
 769.7	21671
 770.2	21634
 770.7	21623
 771.2	21597
 771.7	21571
 772.2	21575
 772.7	21615
 773.2	21589
 773.7	21537
 774.2	21487
 774.7	21527
 775.2	21507
 775.7	21481
 776.2	21469
 776.7	21492
 777.2	21418
 777.7	21487
 778.2	21464
 778.7	21493
 779.2	21501
 779.7	21529
 780.2	21375
 780.7	21436
 781.2	21437
 781.7	21506
 782.2	21419
 782.6	21497
 783.1	21494
 783.6	21450
 784.1	21422
 784.6	21413
 785.1	21419
 785.6	21411
 786.1	21438
 786.6	21451
 787.1	21396
 787.6	21396
 788.1	21389
 788.6	21370
 789.1	21358
 789.6	21392
 790.1	21402
 790.6	21395
 791.1	21302
 791.6	21302
 792.0	21316
 792.5	21343
 793.0	21321
 793.5	21313
 794.0	21245
 794.5	21324
 795.0	21301
 795.5	21269
 796.0	21277
 796.5	21217
 797.0	21229
 797.5	21266
 798.0	21120
 798.4	21150
 798.9	21123
 799.4	21135
 799.9	21127
 800.4	20998
 800.9	21076
 801.4	21132
 801.9	21079
 802.4	21005
 802.9	21059
 803.3	21039
 803.8	21004
 804.3	20937
 804.8	20986
 805.3	20928
 805.8	20906
 806.3	20897
 806.8	20868
 807.2	20855
 807.7	20813
 808.2	20834
 808.7	20749
 809.2	20747
 809.7	20673
 810.2	20728
 810.7	20660
 811.1	20662
 811.6	20649
 812.1	20604
 812.6	20559
 813.1	20588
 813.6	20603
 814.1	20574
 814.5	20528
 815.0	20535
 815.5	20491
 816.0	20438
 816.5	20502
 817.0	20442
 817.4	20414
 817.9	20446
 818.4	20371
 818.9	20451
 819.4	20395
 819.9	20366
 820.3	20331
 820.8	20327
 821.3	20317
 821.8	20340
 822.3	20270
 822.7	20246
 823.2	20299
 823.7	20248
 824.2	20247
 824.7	20223
 825.2	20229
 825.6	20210
 826.1	20196
 826.6	20238
 827.1	20220
 827.6	20213
 828.0	20146
 828.5	20119
 829.0	20154
 829.5	20102
 829.9	20103
 830.4	20148
 830.9	20129
 831.4	20146
 831.9	20101
 832.3	20176
 832.8	20116
 833.3	20107
 833.8	20187
 834.2	20175
 834.7	20026
 835.2	20114
 835.7	20114
 836.1	20105
 836.6	20082
 837.1	20086
 837.6	20090
 838.0	20118
 838.5	20144
 839.0	20140
 839.5	20127
 839.9	20047
 840.4	20055
 840.9	20021
 841.4	20051
 841.8	20075
 842.3	20082
 842.8	20101
 843.3	20094
 843.7	19998
 844.2	19986
 844.7	20065
 845.1	20033
 845.6	19955
 846.1	19978
 846.6	20005
 847.0	19913
 847.5	19957
 848.0	19931
 848.4	19969
 848.9	19929
 849.4	19911
 849.8	19929
 850.3	19924
 850.8	19961
 851.3	19924
 851.7	19916
 852.2	19924
 852.7	19903
 853.1	19879
 853.6	19835
 854.1	19868
 854.5	19836
 855.0	19819
 855.5	19809
 855.9	19865
 856.4	19847
 856.9	19760
 857.3	19812
 857.8	19782
 858.3	19817
 858.7	19771
 859.2	19776
 859.7	19771
 860.1	19823
 860.6	19796
 861.1	19739
 861.5	19781
 862.0	19776
 862.4	19749
 862.9	19710
 863.4	19746
 863.8	19747
 864.3	19737
 864.8	19656
 865.2	19703
 865.7	19724
 866.1	19731
 866.6	19644
 867.1	19718
 867.5	19696
 868.0	19667
 868.5	19624
 868.9	19623
 869.4	19715
 869.8	19663
 870.3	19618
 870.8	19679
 871.2	19627
 871.7	19610
 872.1	19558
 872.6	19595
 873.0	19563
 873.5	19628
 874.0	19606
 874.4	19491
 874.9	19522
 875.3	19473
 875.8	19381
 876.2	19197
 876.7	19064
 877.2	18767
 877.6	18389
 878.1	18015
