#xlabel Wavelength (nm)
#ylabel Spectrometer Array Counts
#title Exposure time is 10000 ms
## lambda	counts
 349.8	16775
 350.3	17018
 350.8	17254
 351.3	17435
 351.9	17540
 352.4	17653
 352.9	17733
 353.4	17708
 354.0	17713
 354.5	17761
 355.0	17769
 355.5	17785
 356.0	17748
 356.6	17717
 357.1	17765
 357.6	17743
 358.1	17769
 358.7	17699
 359.2	17714
 359.7	17731
 360.2	17764
 360.8	17728
 361.3	17818
 361.8	17763
 362.3	17789
 362.9	17749
 363.4	17818
 363.9	17821
 364.4	17847
 364.9	17760
 365.5	17826
 366.0	17809
 366.5	17765
 367.0	17813
 367.6	17833
 368.1	17831
 368.6	17765
 369.1	17823
 369.7	17870
 370.2	17795
 370.7	17793
 371.2	17835
 371.8	17887
 372.3	17811
 372.8	17883
 373.3	17893
 373.9	17839
 374.4	17849
 374.9	17898
 375.5	17794
 376.0	17913
 376.5	17881
 377.0	17894
 377.6	17848
 378.1	17922
 378.6	17852
 379.1	17862
 379.7	17842
 380.2	17907
 380.7	17910
 381.2	17867
 381.8	17857
 382.3	17899
 382.8	17878
 383.4	17925
 383.9	17880
 384.4	18019
 384.9	17926
 385.5	17946
 386.0	17943
 386.5	18020
 387.1	17949
 387.6	17964
 388.1	17967
 388.6	17983
 389.2	17969
 389.7	17991
 390.2	17967
 390.8	18053
 391.3	18022
 391.8	18018
 392.3	18011
 392.9	18003
 393.4	17994
 393.9	18063
 394.5	18066
 395.0	18015
 395.5	18036
 396.0	18031
 396.6	18005
 397.1	18097
 397.6	18085
 398.2	18092
 398.7	18090
 399.2	18178
 399.8	18055
 400.3	18118
 400.8	18162
 401.3	18136
 401.9	18149
 402.4	18166
 402.9	18157
 403.5	18183
 404.0	18170
 404.5	18123
 405.1	18128
 405.6	18223
 406.1	18195
 406.7	18200
 407.2	18205
 407.7	18286
 408.2	18282
 408.8	18282
 409.3	18314
 409.8	18353
 410.4	18316
 410.9	18325
 411.4	18273
 412.0	18338
 412.5	18385
 413.0	18333
 413.6	18379
 414.1	18343
 414.6	18376
 415.2	18421
 415.7	18354
 416.2	18404
 416.8	18393
 417.3	18377
 417.8	18393
 418.4	18479
 418.9	18418
 419.4	18546
 420.0	18439
 420.5	18500
 421.0	18449
 421.5	18527
 422.1	18510
 422.6	18556
 423.1	18581
 423.7	18553
 424.2	18544
 424.7	18577
 425.3	18554
 425.8	18576
 426.3	18562
 426.9	18619
 427.4	18563
 427.9	18670
 428.5	18617
 429.0	18657
 429.6	18613
 430.1	18692
 430.6	18688
 431.2	18639
 431.7	18735
 432.2	18707
 432.8	18686
 433.3	18791
 433.8	18801
 434.4	18778
 434.9	18792
 435.4	18843
 436.0	18824
 436.5	18826
 437.0	18895
 437.6	18875
 438.1	18927
 438.6	18929
 439.2	18961
 439.7	18948
 440.2	18900
 440.8	18931
 441.3	18927
 441.8	18937
 442.4	18901
 442.9	18930
 443.5	18964
 444.0	18957
 444.5	18981
 445.1	18903
 445.6	18940
 446.1	18959
 446.7	18975
 447.2	19001
 447.7	18994
 448.3	19061
 448.8	19032
 449.3	19065
 449.9	19027
 450.4	19120
 450.9	19169
 451.5	19174
 452.0	19149
 452.6	19175
 453.1	19236
 453.6	19255
 454.2	19156
 454.7	19243
 455.2	19263
 455.8	19312
 456.3	19255
 456.8	19383
 457.4	19316
 457.9	19335
 458.5	19378
 459.0	19343
 459.5	19379
 460.1	19333
 460.6	19383
 461.1	19367
 461.7	19416
 462.2	19365
 462.7	19407
 463.3	19343
 463.8	19405
 464.4	19474
 464.9	19421
 465.4	19487
 466.0	19394
 466.5	19466
 467.0	19406
 467.6	19475
 468.1	19562
 468.7	19502
 469.2	19435
 469.7	19534
 470.3	19519
 470.8	19563
 471.3	19547
 471.9	19518
 472.4	19578
 473.0	19618
 473.5	19641
 474.0	19639
 474.6	19657
 475.1	19649
 475.6	19724
 476.2	19741
 476.7	19725
 477.3	19786
 477.8	19733
 478.3	19671
 478.9	19866
 479.4	19766
 479.9	19783
 480.5	19775
 481.0	19803
 481.6	19830
 482.1	19895
 482.6	19881
 483.2	19898
 483.7	20016
 484.2	19957
 484.8	19811
 485.3	19905
 485.9	19993
 486.4	19957
 486.9	19978
 487.5	19953
 488.0	19967
 488.6	20024
 489.1	20042
 489.6	20098
 490.2	20095
 490.7	20059
 491.2	20036
 491.8	20093
 492.3	20049
 492.9	20098
 493.4	20116
 493.9	20127
 494.5	20132
 495.0	20194
 495.6	20112
 496.1	20122
 496.6	20181
 497.2	20102
 497.7	20069
 498.2	20153
 498.8	20166
 499.3	20091
 499.9	20145
 500.4	20140
 500.9	20129
 501.5	20123
 502.0	20197
 502.6	20180
 503.1	20273
 503.6	20249
 504.2	20209
 504.7	20230
 505.2	20307
 505.8	20302
 506.3	20392
 506.9	20418
 507.4	20395
 507.9	20395
 508.5	20446
 509.0	20497
 509.6	20573
 510.1	20559
 510.6	20613
 511.2	20644
 511.7	20645
 512.2	20724
 512.8	20755
 513.3	20733
 513.9	20738
 514.4	20795
 514.9	20875
 515.5	20783
 516.0	20853
 516.6	20833
 517.1	20876
 517.6	20853
 518.2	20828
 518.7	20763
 519.3	20808
 519.8	20841
 520.3	20833
 520.9	20787
 521.4	20785
 521.9	20825
 522.5	20749
 523.0	20757
 523.6	20795
 524.1	20641
 524.6	20690
 525.2	20714
 525.7	20747
 526.3	20675
 526.8	20766
 527.3	20723
 527.9	20745
 528.4	20733
 528.9	20803
 529.5	20823
 530.0	20819
 530.6	20876
 531.1	20898
 531.6	20827
 532.2	20958
 532.7	20931
 533.3	20985
 533.8	21121
 534.3	21172
 534.9	21177
 535.4	21147
 536.0	21234
 536.5	21287
 537.0	21271
 537.6	21306
 538.1	21378
 538.6	21407
 539.2	21365
 539.7	21394
 540.3	21493
 540.8	21478
 541.3	21450
 541.9	21481
 542.4	21495
 543.0	21554
 543.5	21522
 544.0	21505
 544.6	21551
 545.1	21559
 545.6	21595
 546.2	21578
 546.7	21481
 547.3	21546
 547.8	21519
 548.3	21567
 548.9	21486
 549.4	21482
 550.0	21445
 550.5	21511
 551.0	21549
 551.6	21498
 552.1	21514
 552.6	21506
 553.2	21483
 553.7	21463
 554.3	21496
 554.8	21564
 555.3	21425
 555.9	21503
 556.4	21468
 556.9	21562
 557.5	21592
 558.0	21553
 558.6	21539
 559.1	21612
 559.6	21606
 560.2	21611
 560.7	21622
 561.3	21598
 561.8	21589
 562.3	21703
 562.9	21695
 563.4	21730
 563.9	21731
 564.5	21738
 565.0	21733
 565.6	21762
 566.1	21760
 566.6	21767
 567.2	21761
 567.7	21863
 568.2	21779
 568.8	21789
 569.3	21764
 569.9	21835
 570.4	21816
 570.9	21798
 571.5	21792
 572.0	21789
 572.5	21848
 573.1	21793
 573.6	21853
 574.1	21849
 574.7	21849
 575.2	21828
 575.8	21870
 576.3	21955
 576.8	21923
 577.4	21937
 577.9	21960
 578.4	21927
 579.0	21949
 579.5	22056
 580.1	21991
 580.6	22009
 581.1	22094
 581.7	22119
 582.2	22073
 582.7	22118
 583.3	22168
 583.8	22148
 584.3	22109
 584.9	22166
 585.4	22175
 586.0	22162
 586.5	22199
 587.0	22173
 587.6	22250
 588.1	22203
 588.6	22281
 589.2	22227
 589.7	22247
 590.2	22239
 590.8	22233
 591.3	22260
 591.9	22203
 592.4	22258
 592.9	22187
 593.5	22183
 594.0	22167
 594.5	22175
 595.1	22152
 595.6	22123
 596.1	22170
 596.7	22128
 597.2	22152
 597.7	22087
 598.3	22087
 598.8	22057
 599.3	22061
 599.9	22025
 600.4	22016
 601.0	22013
 601.5	21995
 602.0	21983
 602.6	21940
 603.1	21951
 603.6	21944
 604.2	22040
 604.7	21949
 605.2	22023
 605.8	21945
 606.3	21973
 606.8	22047
 607.4	22027
 607.9	22069
 608.4	22019
 609.0	22057
 609.5	22111
 610.0	22097
 610.6	22196
 611.1	22121
 611.6	22165
 612.2	22166
 612.7	22234
 613.2	22238
 613.8	22173
 614.3	22219
 614.8	22276
 615.4	22230
 615.9	22323
 616.4	22389
 617.0	22361
 617.5	22459
 618.0	22487
 618.6	22439
 619.1	22480
 619.6	22571
 620.2	22587
 620.7	22670
 621.2	22646
 621.8	22702
 622.3	22742
 622.8	22723
 623.4	22761
 623.9	22830
 624.4	22820
 625.0	22824
 625.5	22831
 626.0	22845
 626.6	22893
 627.1	22886
 627.6	22839
 628.2	22809
 628.7	22837
 629.2	22823
 629.8	22845
 630.3	22847
 630.8	22823
 631.4	22798
 631.9	22808
 632.4	22697
 632.9	22701
 633.5	22691
 634.0	22634
 634.5	22699
 635.1	22625
 635.6	22594
 636.1	22562
 636.7	22602
 637.2	22580
 637.7	22481
 638.3	22559
 638.8	22541
 639.3	22541
 639.8	22485
 640.4	22492
 640.9	22511
 641.4	22413
 642.0	22397
 642.5	22408
 643.0	22378
 643.6	22457
 644.1	22414
 644.6	22419
 645.1	22451
 645.7	22434
 646.2	22396
 646.7	22413
 647.3	22443
 647.8	22450
 648.3	22427
 648.9	22471
 649.4	22387
 649.9	22466
 650.4	22474
 651.0	22521
 651.5	22543
 652.0	22595
 652.6	22549
 653.1	22631
 653.6	22553
 654.1	22632
 654.7	22595
 655.2	22681
 655.7	22724
 656.3	22745
 656.8	22698
 657.3	22765
 657.8	22719
 658.4	22722
 658.9	22736
 659.4	22818
 659.9	22825
 660.5	22801
 661.0	22850
 661.5	22895
 662.1	22862
 662.6	22874
 663.1	22837
 663.6	22921
 664.2	22878
 664.7	22843
 665.2	22784
 665.7	22897
 666.3	22871
 666.8	22871
 667.3	22870
 667.8	22837
 668.4	22861
 668.9	22863
 669.4	22841
 669.9	22870
 670.5	22803
 671.0	22815
 671.5	22767
 672.0	22821
 672.6	22821
 673.1	22843
 673.6	22755
 674.1	22780
 674.7	22769
 675.2	22815
 675.7	22682
 676.2	22681
 676.8	22730
 677.3	22742
 677.8	22667
 678.3	22770
 678.9	22704
 679.4	22647
 679.9	22699
 680.4	22706
 681.0	22667
 681.5	22702
 682.0	22667
 682.5	22685
 683.1	22603
 683.6	22641
 684.1	22585
 684.6	22680
 685.1	22617
 685.7	22639
 686.2	22611
 686.7	22574
 687.2	22559
 687.8	22627
 688.3	22571
 688.8	22594
 689.3	22539
 689.8	22567
 690.4	22559
 690.9	22573
 691.4	22571
 691.9	22597
 692.4	22558
 693.0	22623
 693.5	22597
 694.0	22578
 694.5	22572
 695.1	22554
 695.6	22525
 696.1	22588
 696.6	22571
 697.1	22589
 697.7	22617
 698.2	22552
 698.7	22575
 699.2	22542
 699.7	22547
 700.3	22516
 700.8	22495
 701.3	22598
 701.8	22558
 702.3	22504
 702.8	22505
 703.4	22485
 703.9	22484
 704.4	22479
 704.9	22434
 705.4	22439
 706.0	22521
 706.5	22505
 707.0	22417
 707.5	22409
 708.0	22433
 708.5	22377
 709.1	22439
 709.6	22402
 710.1	22361
 710.6	22337
 711.1	22340
 711.7	22355
 712.2	22353
 712.7	22354
 713.2	22332
 713.7	22330
 714.2	22293
 714.8	22366
 715.3	22314
 715.8	22315
 716.3	22324
 716.8	22237
 717.3	22224
 717.8	22326
 718.4	22336
 718.9	22282
 719.4	22350
 719.9	22262
 720.4	22310
 720.9	22314
 721.4	22313
 722.0	22339
 722.5	22327
 723.0	22317
 723.5	22327
 724.0	22295
 724.5	22287
 725.0	22311
 725.6	22243
 726.1	22297
 726.6	22409
 727.1	22352
 727.6	22389
 728.1	22400
 728.6	22367
 729.1	22358
 729.7	22343
 730.2	22367
 730.7	22399
 731.2	22428
 731.7	22410
 732.2	22419
 732.7	22403
 733.2	22442
 733.8	22418
 734.3	22439
 734.8	22415
 735.3	22443
 735.8	22426
 736.3	22408
 736.8	22444
 737.3	22483
 737.8	22440
 738.4	22435
 738.9	22392
 739.4	22475
 739.9	22453
 740.4	22465
 740.9	22455
 741.4	22457
 741.9	22451
 742.4	22462
 742.9	22449
 743.4	22527
 744.0	22439
 744.5	22441
 745.0	22444
 745.5	22516
 746.0	22487
 746.5	22490
 747.0	22433
 747.5	22422
 748.0	22387
 748.5	22404
 749.0	22419
 749.5	22494
 750.0	22330
 750.5	22381
 751.1	22384
 751.6	22380
 752.1	22364
 752.6	22325
 753.1	22349
 753.6	22283
 754.1	22243
 754.6	22290
 755.1	22246
 755.6	22239
 756.1	22155
 756.6	22243
 757.1	22205
 757.6	22182
 758.1	22134
 758.6	22146
 759.1	22070
 759.6	22095
 760.1	22042
 760.7	21995
 761.2	22067
 761.7	22008
 762.2	21985
 762.7	22025
 763.2	21885
 763.7	21955
 764.2	21890
 764.7	21883
 765.2	21900
 765.7	21866
 766.2	21817
 766.7	21853
 767.2	21801
 767.7	21802
 768.2	21767
 768.7	21724
 769.2	21711
 769.7	21750
 770.2	21707
 770.7	21700
 771.2	21681
 771.7	21649
 772.2	21656
 772.7	21694
 773.2	21665
 773.7	21617
 774.2	21562
 774.7	21605
 775.2	21588
 775.7	21559
 776.2	21549
 776.7	21571
 777.2	21497
 777.7	21563
 778.2	21545
 778.7	21574
 779.2	21579
 779.7	21603
 780.2	21452
 780.7	21515
 781.2	21519
 781.7	21581
 782.2	21501
 782.6	21573
 783.1	21577
 783.6	21534
 784.1	21506
 784.6	21487
 785.1	21498
 785.6	21490
 786.1	21512
 786.6	21531
 787.1	21474
 787.6	21473
 788.1	21463
 788.6	21446
 789.1	21442
 789.6	21465
 790.1	21481
 790.6	21471
 791.1	21379
 791.6	21375
 792.0	21395
 792.5	21421
 793.0	21401
 793.5	21389
 794.0	21323
 794.5	21397
 795.0	21374
 795.5	21341
 796.0	21351
 796.5	21295
 797.0	21303
 797.5	21344
 798.0	21195
 798.4	21232
 798.9	21201
 799.4	21211
 799.9	21209
 800.4	21075
 800.9	21154
 801.4	21205
 801.9	21156
 802.4	21076
 802.9	21123
 803.3	21110
 803.8	21069
 804.3	21012
 804.8	21062
 805.3	21006
 805.8	20983
 806.3	20971
 806.8	20944
 807.2	20923
 807.7	20890
 808.2	20903
 808.7	20818
 809.2	20817
 809.7	20751
 810.2	20803
 810.7	20732
 811.1	20736
 811.6	20722
 812.1	20675
 812.6	20625
 813.1	20659
 813.6	20665
 814.1	20637
 814.5	20591
 815.0	20603
 815.5	20563
 816.0	20510
 816.5	20571
 817.0	20512
 817.4	20493
 817.9	20510
 818.4	20442
 818.9	20517
 819.4	20465
 819.9	20435
 820.3	20404
 820.8	20394
 821.3	20391
 821.8	20405
 822.3	20338
 822.7	20316
 823.2	20371
 823.7	20319
 824.2	20312
 824.7	20289
 825.2	20298
 825.6	20273
 826.1	20266
 826.6	20307
 827.1	20293
 827.6	20278
 828.0	20222
 828.5	20196
 829.0	20220
 829.5	20163
 829.9	20169
 830.4	20221
 830.9	20194
 831.4	20220
 831.9	20167
 832.3	20246
 832.8	20185
 833.3	20179
 833.8	20252
 834.2	20239
 834.7	20091
 835.2	20181
 835.7	20182
 836.1	20170
 836.6	20148
 837.1	20151
 837.6	20154
 838.0	20185
 838.5	20203
 839.0	20201
 839.5	20190
 839.9	20117
 840.4	20115
 840.9	20079
 841.4	20123
 841.8	20143
 842.3	20148
 842.8	20169
 843.3	20167
 843.7	20062
 844.2	20046
 844.7	20131
 845.1	20101
 845.6	20026
 846.1	20043
 846.6	20075
 847.0	19977
 847.5	20019
 848.0	20003
 848.4	20039
 848.9	20002
 849.4	19980
 849.8	19995
 850.3	19991
 850.8	20028
 851.3	19990
 851.7	19987
 852.2	19988
 852.7	19970
 853.1	19943
 853.6	19899
 854.1	19935
 854.5	19900
 855.0	19881
 855.5	19871
 855.9	19927
 856.4	19912
 856.9	19826
 857.3	19875
 857.8	19845
 858.3	19875
 858.7	19827
 859.2	19840
 859.7	19839
 860.1	19884
 860.6	19861
 861.1	19799
 861.5	19843
 862.0	19844
 862.4	19812
 862.9	19777
 863.4	19807
 863.8	19809
 864.3	19803
 864.8	19715
 865.2	19759
 865.7	19782
 866.1	19790
 866.6	19706
 867.1	19781
 867.5	19762
 868.0	19735
 868.5	19690
 868.9	19689
 869.4	19783
 869.8	19737
 870.3	19693
 870.8	19755
 871.2	19710
 871.7	19705
 872.1	19649
 872.6	19697
 873.0	19668
 873.5	19736
 874.0	19722
 874.4	19611
 874.9	19633
 875.3	19585
 875.8	19484
 876.2	19292
 876.7	19149
 877.2	18842
 877.6	18453
 878.1	18074
