#xlabel Wavelength (nm)
#ylabel Spectrometer Array Counts
#title Exposure time is 9300 ms
## lambda	counts
 349.8	16727
 350.3	16987
 350.8	17229
 351.3	17409
 351.9	17511
 352.4	17625
 352.9	17704
 353.4	17668
 354.0	17671
 354.5	17711
 355.0	17715
 355.5	17725
 356.0	17684
 356.6	17649
 357.1	17697
 357.6	17673
 358.1	17700
 358.7	17645
 359.2	17661
 359.7	17677
 360.2	17709
 360.8	17673
 361.3	17768
 361.8	17716
 362.3	17744
 362.9	17707
 363.4	17777
 363.9	17777
 364.4	17807
 364.9	17719
 365.5	17792
 366.0	17773
 366.5	17732
 367.0	17783
 367.6	17799
 368.1	17798
 368.6	17739
 369.1	17795
 369.7	17844
 370.2	17773
 370.7	17770
 371.2	17817
 371.8	17867
 372.3	17795
 372.8	17867
 373.3	17885
 373.9	17839
 374.4	17848
 374.9	17897
 375.5	17805
 376.0	17922
 376.5	17887
 377.0	17918
 377.6	17869
 378.1	17943
 378.6	17887
 379.1	17894
 379.7	17887
 380.2	17955
 380.7	17964
 381.2	17925
 381.8	17919
 382.3	17961
 382.8	17943
 383.4	17994
 383.9	17956
 384.4	18102
 384.9	18029
 385.5	18048
 386.0	18053
 386.5	18126
 387.1	18067
 387.6	18090
 388.1	18103
 388.6	18120
 389.2	18118
 389.7	18154
 390.2	18135
 390.8	18237
 391.3	18217
 391.8	18222
 392.3	18221
 392.9	18229
 393.4	18231
 393.9	18318
 394.5	18329
 395.0	18291
 395.5	18322
 396.0	18334
 396.6	18310
 397.1	18404
 397.6	18408
 398.2	18415
 398.7	18423
 399.2	18521
 399.8	18406
 400.3	18472
 400.8	18517
 401.3	18504
 401.9	18518
 402.4	18546
 402.9	18541
 403.5	18575
 404.0	18575
 404.5	18538
 405.1	18555
 405.6	18660
 406.1	18642
 406.7	18672
 407.2	18687
 407.7	18780
 408.2	18783
 408.8	18806
 409.3	18853
 409.8	18906
 410.4	18887
 410.9	18907
 411.4	18878
 412.0	18949
 412.5	19013
 413.0	18984
 413.6	19034
 414.1	19014
 414.6	19059
 415.2	19115
 415.7	19073
 416.2	19134
 416.8	19129
 417.3	19137
 417.8	19169
 418.4	19271
 418.9	19227
 419.4	19366
 420.0	19273
 420.5	19348
 421.0	19309
 421.5	19397
 422.1	19393
 422.6	19451
 423.1	19483
 423.7	19469
 424.2	19467
 424.7	19509
 425.3	19494
 425.8	19529
 426.3	19526
 426.9	19600
 427.4	19542
 427.9	19660
 428.5	19619
 429.0	19676
 429.6	19653
 430.1	19747
 430.6	19765
 431.2	19735
 431.7	19851
 432.2	19843
 432.8	19856
 433.3	19982
 433.8	20006
 434.4	20008
 434.9	20039
 435.4	20111
 436.0	20110
 436.5	20129
 437.0	20214
 437.6	20204
 438.1	20263
 438.6	20278
 439.2	20316
 439.7	20312
 440.2	20263
 440.8	20294
 441.3	20303
 441.8	20306
 442.4	20273
 442.9	20303
 443.5	20337
 444.0	20333
 444.5	20364
 445.1	20295
 445.6	20335
 446.1	20367
 446.7	20399
 447.2	20431
 447.7	20439
 448.3	20529
 448.8	20519
 449.3	20579
 449.9	20567
 450.4	20694
 450.9	20767
 451.5	20801
 452.0	20813
 452.6	20871
 453.1	20961
 453.6	21002
 454.2	20937
 454.7	21036
 455.2	21084
 455.8	21155
 456.3	21125
 456.8	21263
 457.4	21212
 457.9	21235
 458.5	21293
 459.0	21261
 459.5	21303
 460.1	21267
 460.6	21305
 461.1	21297
 461.7	21351
 462.2	21308
 462.7	21336
 463.3	21278
 463.8	21346
 464.4	21411
 464.9	21371
 465.4	21445
 466.0	21367
 466.5	21449
 467.0	21406
 467.6	21486
 468.1	21592
 468.7	21547
 469.2	21509
 469.7	21624
 470.3	21638
 470.8	21694
 471.3	21704
 471.9	21691
 472.4	21769
 473.0	21831
 473.5	21873
 474.0	21894
 474.6	21921
 475.1	21941
 475.6	22025
 476.2	22064
 476.7	22059
 477.3	22135
 477.8	22096
 478.3	22048
 478.9	22255
 479.4	22175
 479.9	22209
 480.5	22219
 481.0	22268
 481.6	22313
 482.1	22403
 482.6	22407
 483.2	22446
 483.7	22567
 484.2	22547
 484.8	22423
 485.3	22538
 485.9	22629
 486.4	22613
 486.9	22663
 487.5	22645
 488.0	22677
 488.6	22750
 489.1	22787
 489.6	22851
 490.2	22855
 490.7	22845
 491.2	22817
 491.8	22885
 492.3	22847
 492.9	22903
 493.4	22918
 493.9	22934
 494.5	22939
 495.0	22997
 495.6	22923
 496.1	22922
 496.6	22973
 497.2	22895
 497.7	22860
 498.2	22939
 498.8	22946
 499.3	22866
 499.9	22932
 500.4	22929
 500.9	22935
 501.5	22944
 502.0	23035
 502.6	23038
 503.1	23147
 503.6	23144
 504.2	23135
 504.7	23186
 505.2	23291
 505.8	23324
 506.3	23453
 506.9	23513
 507.4	23534
 507.9	23563
 508.5	23648
 509.0	23750
 509.6	23869
 510.1	23891
 510.6	23977
 511.2	24047
 511.7	24085
 512.2	24190
 512.8	24249
 513.3	24261
 513.9	24281
 514.4	24360
 514.9	24461
 515.5	24377
 516.0	24447
 516.6	24411
 517.1	24459
 517.6	24426
 518.2	24393
 518.7	24318
 519.3	24345
 519.8	24355
 520.3	24325
 520.9	24260
 521.4	24242
 521.9	24267
 522.5	24171
 523.0	24163
 523.6	24178
 524.1	24031
 524.6	24069
 525.2	24088
 525.7	24127
 526.3	24067
 526.8	24167
 527.3	24133
 527.9	24175
 528.4	24187
 528.9	24266
 529.5	24308
 530.0	24331
 530.6	24412
 531.1	24464
 531.6	24430
 532.2	24587
 532.7	24605
 533.3	24694
 533.8	24865
 534.3	24954
 534.9	25003
 535.4	25018
 536.0	25141
 536.5	25230
 537.0	25250
 537.6	25329
 538.1	25425
 538.6	25488
 539.2	25478
 539.7	25531
 540.3	25661
 540.8	25655
 541.3	25643
 541.9	25699
 542.4	25713
 543.0	25791
 543.5	25757
 544.0	25744
 544.6	25776
 545.1	25786
 545.6	25818
 546.2	25803
 546.7	25711
 547.3	25765
 547.8	25739
 548.3	25772
 548.9	25678
 549.4	25671
 550.0	25634
 550.5	25687
 551.0	25717
 551.6	25669
 552.1	25677
 552.6	25671
 553.2	25635
 553.7	25616
 554.3	25648
 554.8	25718
 555.3	25591
 555.9	25655
 556.4	25638
 556.9	25746
 557.5	25785
 558.0	25762
 558.6	25760
 559.1	25840
 559.6	25843
 560.2	25874
 560.7	25898
 561.3	25899
 561.8	25899
 562.3	26029
 562.9	26033
 563.4	26092
 563.9	26095
 564.5	26124
 565.0	26121
 565.6	26157
 566.1	26166
 566.6	26179
 567.2	26180
 567.7	26273
 568.2	26215
 568.8	26226
 569.3	26210
 569.9	26275
 570.4	26264
 570.9	26246
 571.5	26250
 572.0	26254
 572.5	26311
 573.1	26276
 573.6	26335
 574.1	26337
 574.7	26354
 575.2	26353
 575.8	26403
 576.3	26494
 576.8	26486
 577.4	26513
 577.9	26556
 578.4	26546
 579.0	26595
 579.5	26711
 580.1	26665
 580.6	26711
 581.1	26815
 581.7	26869
 582.2	26838
 582.7	26900
 583.3	26971
 583.8	26970
 584.3	26943
 584.9	27022
 585.4	27045
 586.0	27042
 586.5	27092
 587.0	27085
 587.6	27174
 588.1	27141
 588.6	27215
 589.2	27172
 589.7	27196
 590.2	27189
 590.8	27175
 591.3	27198
 591.9	27137
 592.4	27179
 592.9	27102
 593.5	27078
 594.0	27052
 594.5	27049
 595.1	26999
 595.6	26941
 596.1	26975
 596.7	26923
 597.2	26926
 597.7	26845
 598.3	26842
 598.8	26795
 599.3	26767
 599.9	26722
 600.4	26691
 601.0	26684
 601.5	26659
 602.0	26627
 602.6	26578
 603.1	26591
 603.6	26597
 604.2	26677
 604.7	26600
 605.2	26679
 605.8	26601
 606.3	26644
 606.8	26715
 607.4	26723
 607.9	26777
 608.4	26747
 609.0	26806
 609.5	26862
 610.0	26867
 610.6	26975
 611.1	26931
 611.6	26995
 612.2	27027
 612.7	27105
 613.2	27135
 613.8	27110
 614.3	27182
 614.8	27259
 615.4	27241
 615.9	27379
 616.4	27471
 617.0	27462
 617.5	27590
 618.0	27657
 618.6	27655
 619.1	27743
 619.6	27859
 620.2	27930
 620.7	28050
 621.2	28069
 621.8	28155
 622.3	28238
 622.8	28253
 623.4	28323
 623.9	28405
 624.4	28420
 625.0	28431
 625.5	28445
 626.0	28467
 626.6	28529
 627.1	28511
 627.6	28459
 628.2	28426
 628.7	28463
 629.2	28437
 629.8	28441
 630.3	28423
 630.8	28387
 631.4	28332
 631.9	28325
 632.4	28183
 632.9	28149
 633.5	28117
 634.0	28037
 634.5	28057
 635.1	27962
 635.6	27915
 636.1	27862
 636.7	27850
 637.2	27807
 637.7	27681
 638.3	27741
 638.8	27699
 639.3	27683
 639.8	27600
 640.4	27591
 640.9	27587
 641.4	27489
 642.0	27449
 642.5	27451
 643.0	27417
 643.6	27486
 644.1	27440
 644.6	27450
 645.1	27464
 645.7	27453
 646.2	27410
 646.7	27436
 647.3	27465
 647.8	27488
 648.3	27465
 648.9	27518
 649.4	27454
 649.9	27531
 650.4	27557
 651.0	27619
 651.5	27655
 652.0	27726
 652.6	27697
 653.1	27799
 653.6	27743
 654.1	27829
 654.7	27814
 655.2	27925
 655.7	27977
 656.3	28009
 656.8	27994
 657.3	28074
 657.8	28051
 658.4	28081
 658.9	28117
 659.4	28194
 659.9	28218
 660.5	28204
 661.0	28260
 661.5	28313
 662.1	28287
 662.6	28306
 663.1	28285
 663.6	28364
 664.2	28327
 664.7	28306
 665.2	28244
 665.7	28343
 666.3	28306
 666.8	28314
 667.3	28306
 667.8	28271
 668.4	28284
 668.9	28279
 669.4	28251
 669.9	28260
 670.5	28189
 671.0	28201
 671.5	28145
 672.0	28181
 672.6	28168
 673.1	28186
 673.6	28093
 674.1	28098
 674.7	28080
 675.2	28103
 675.7	27975
 676.2	27957
 676.8	28006
 677.3	28006
 677.8	27918
 678.3	28011
 678.9	27925
 679.4	27859
 679.9	27911
 680.4	27898
 681.0	27853
 681.5	27867
 682.0	27824
 682.5	27847
 683.1	27752
 683.6	27771
 684.1	27710
 684.6	27802
 685.1	27738
 685.7	27741
 686.2	27715
 686.7	27676
 687.2	27665
 687.8	27717
 688.3	27656
 688.8	27674
 689.3	27620
 689.8	27647
 690.4	27633
 690.9	27645
 691.4	27659
 691.9	27663
 692.4	27634
 693.0	27698
 693.5	27668
 694.0	27655
 694.5	27645
 695.1	27628
 695.6	27595
 696.1	27658
 696.6	27637
 697.1	27665
 697.7	27683
 698.2	27615
 698.7	27639
 699.2	27601
 699.7	27603
 700.3	27569
 700.8	27539
 701.3	27624
 701.8	27578
 702.3	27521
 702.8	27517
 703.4	27490
 703.9	27477
 704.4	27446
 704.9	27403
 705.4	27399
 706.0	27450
 706.5	27422
 707.0	27323
 707.5	27297
 708.0	27312
 708.5	27250
 709.1	27286
 709.6	27241
 710.1	27192
 710.6	27152
 711.1	27133
 711.7	27134
 712.2	27112
 712.7	27111
 713.2	27067
 713.7	27065
 714.2	27011
 714.8	27084
 715.3	27023
 715.8	27015
 716.3	27010
 716.8	26939
 717.3	26925
 717.8	27015
 718.4	27027
 718.9	26957
 719.4	27039
 719.9	26947
 720.4	26993
 720.9	27003
 721.4	26993
 722.0	27021
 722.5	27003
 723.0	26998
 723.5	27012
 724.0	26988
 724.5	26973
 725.0	27009
 725.6	26948
 726.1	27003
 726.6	27104
 727.1	27047
 727.6	27079
 728.1	27105
 728.6	27059
 729.1	27049
 729.7	27039
 730.2	27062
 730.7	27087
 731.2	27115
 731.7	27099
 732.2	27110
 732.7	27078
 733.2	27113
 733.8	27087
 734.3	27115
 734.8	27104
 735.3	27130
 735.8	27116
 736.3	27110
 736.8	27149
 737.3	27203
 737.8	27159
 738.4	27160
 738.9	27124
 739.4	27208
 739.9	27186
 740.4	27207
 740.9	27187
 741.4	27189
 741.9	27180
 742.4	27195
 742.9	27176
 743.4	27237
 744.0	27143
 744.5	27140
 745.0	27137
 745.5	27186
 746.0	27149
 746.5	27158
 747.0	27094
 747.5	27063
 748.0	27027
 748.5	27037
 749.0	27027
 749.5	27097
 750.0	26928
 750.5	26952
 751.1	26949
 751.6	26923
 752.1	26890
 752.6	26843
 753.1	26859
 753.6	26778
 754.1	26729
 754.6	26750
 755.1	26689
 755.6	26671
 756.1	26573
 756.6	26633
 757.1	26581
 757.6	26545
 758.1	26487
 758.6	26465
 759.1	26375
 759.6	26384
 760.1	26309
 760.7	26245
 761.2	26297
 761.7	26226
 762.2	26180
 762.7	26198
 763.2	26055
 763.7	26104
 764.2	26007
 764.7	25989
 765.2	25981
 765.7	25923
 766.2	25857
 766.7	25863
 767.2	25785
 767.7	25756
 768.2	25713
 768.7	25653
 769.2	25617
 769.7	25630
 770.2	25588
 770.7	25565
 771.2	25521
 771.7	25483
 772.2	25470
 772.7	25498
 773.2	25461
 773.7	25399
 774.2	25335
 774.7	25355
 775.2	25323
 775.7	25293
 776.2	25274
 776.7	25284
 777.2	25205
 777.7	25261
 778.2	25227
 778.7	25253
 779.2	25250
 779.7	25263
 780.2	25105
 780.7	25163
 781.2	25152
 781.7	25205
 782.2	25129
 782.6	25184
 783.1	25176
 783.6	25138
 784.1	25100
 784.6	25078
 785.1	25085
 785.6	25072
 786.1	25087
 786.6	25097
 787.1	25038
 787.6	25023
 788.1	25001
 788.6	24990
 789.1	24962
 789.6	24978
 790.1	24978
 790.6	24969
 791.1	24863
 791.6	24849
 792.0	24849
 792.5	24863
 793.0	24827
 793.5	24801
 794.0	24718
 794.5	24786
 795.0	24731
 795.5	24692
 796.0	24681
 796.5	24607
 797.0	24607
 797.5	24614
 798.0	24447
 798.4	24453
 798.9	24413
 799.4	24400
 799.9	24364
 800.4	24215
 800.9	24275
 801.4	24291
 801.9	24217
 802.4	24116
 802.9	24140
 803.3	24099
 803.8	24031
 804.3	23957
 804.8	23976
 805.3	23899
 805.8	23845
 806.3	23803
 806.8	23755
 807.2	23713
 807.7	23663
 808.2	23642
 808.7	23545
 809.2	23515
 809.7	23419
 810.2	23453
 810.7	23359
 811.1	23334
 811.6	23307
 812.1	23239
 812.6	23161
 813.1	23184
 813.6	23167
 814.1	23123
 814.5	23057
 815.0	23044
 815.5	22977
 816.0	22919
 816.5	22950
 817.0	22875
 817.4	22840
 817.9	22843
 818.4	22751
 818.9	22811
 819.4	22742
 819.9	22703
 820.3	22654
 820.8	22632
 821.3	22613
 821.8	22598
 822.3	22533
 822.7	22503
 823.2	22535
 823.7	22477
 824.2	22469
 824.7	22425
 825.2	22422
 825.6	22385
 826.1	22368
 826.6	22395
 827.1	22363
 827.6	22350
 828.0	22282
 828.5	22243
 829.0	22266
 829.5	22196
 829.9	22197
 830.4	22229
 830.9	22200
 831.4	22213
 831.9	22163
 832.3	22225
 832.8	22164
 833.3	22153
 833.8	22214
 834.2	22191
 834.7	22045
 835.2	22122
 835.7	22109
 836.1	22095
 836.6	22067
 837.1	22064
 837.6	22067
 838.0	22087
 838.5	22098
 839.0	22092
 839.5	22082
 839.9	21995
 840.4	21993
 840.9	21950
 841.4	21982
 841.8	21990
 842.3	21998
 842.8	22007
 843.3	21986
 843.7	21890
 844.2	21865
 844.7	21940
 845.1	21907
 845.6	21827
 846.1	21838
 846.6	21862
 847.0	21759
 847.5	21791
 848.0	21759
 848.4	21788
 848.9	21743
 849.4	21711
 849.8	21722
 850.3	21710
 850.8	21743
 851.3	21695
 851.7	21678
 852.2	21671
 852.7	21651
 853.1	21619
 853.6	21548
 854.1	21584
 854.5	21533
 855.0	21511
 855.5	21487
 855.9	21536
 856.4	21509
 856.9	21411
 857.3	21450
 857.8	21402
 858.3	21415
 858.7	21359
 859.2	21370
 859.7	21367
 860.1	21414
 860.6	21373
 861.1	21301
 861.5	21329
 862.0	21324
 862.4	21277
 862.9	21227
 863.4	21261
 863.8	21253
 864.3	21232
 864.8	21138
 865.2	21173
 865.7	21183
 866.1	21181
 866.6	21089
 867.1	21151
 867.5	21119
 868.0	21084
 868.5	21017
 868.9	21015
 869.4	21091
 869.8	21028
 870.3	20975
 870.8	21028
 871.2	20971
 871.7	20951
 872.1	20887
 872.6	20930
 873.0	20895
 873.5	20959
 874.0	20939
 874.4	20819
 874.9	20851
 875.3	20796
 875.8	20693
 876.2	20482
 876.7	20319
 877.2	19972
 877.6	19544
 878.1	19100
