#xlabel Wavelength (nm)
#ylabel Spectrometer Array Counts
#title Exposure time is 10000 ms
## lambda	counts
 349.8	16770
 350.3	17018
 350.8	17259
 351.3	17436
 351.9	17529
 352.4	17646
 352.9	17719
 353.4	17699
 354.0	17708
 354.5	17756
 355.0	17765
 355.5	17780
 356.0	17744
 356.6	17709
 357.1	17754
 357.6	17731
 358.1	17752
 358.7	17692
 359.2	17713
 359.7	17723
 360.2	17749
 360.8	17713
 361.3	17812
 361.8	17756
 362.3	17779
 362.9	17738
 363.4	17806
 363.9	17807
 364.4	17834
 364.9	17750
 365.5	17817
 366.0	17804
 366.5	17760
 367.0	17799
 367.6	17819
 368.1	17822
 368.6	17758
 369.1	17813
 369.7	17859
 370.2	17787
 370.7	17782
 371.2	17826
 371.8	17875
 372.3	17801
 372.8	17872
 373.3	17884
 373.9	17833
 374.4	17843
 374.9	17886
 375.5	17785
 376.0	17905
 376.5	17867
 377.0	17890
 377.6	17833
 378.1	17915
 378.6	17852
 379.1	17847
 379.7	17831
 380.2	17902
 380.7	17903
 381.2	17859
 381.8	17853
 382.3	17890
 382.8	17868
 383.4	17915
 383.9	17874
 384.4	18010
 384.9	17927
 385.5	17947
 386.0	17941
 386.5	18015
 387.1	17946
 387.6	17962
 388.1	17963
 388.6	17984
 389.2	17967
 389.7	17992
 390.2	17969
 390.8	18048
 391.3	18019
 391.8	18017
 392.3	18006
 392.9	18005
 393.4	17995
 393.9	18062
 394.5	18065
 395.0	18014
 395.5	18038
 396.0	18036
 396.6	18007
 397.1	18096
 397.6	18092
 398.2	18094
 398.7	18089
 399.2	18183
 399.8	18059
 400.3	18116
 400.8	18160
 401.3	18136
 401.9	18154
 402.4	18169
 402.9	18161
 403.5	18191
 404.0	18175
 404.5	18132
 405.1	18139
 405.6	18229
 406.1	18203
 406.7	18212
 407.2	18226
 407.7	18299
 408.2	18294
 408.8	18295
 409.3	18326
 409.8	18371
 410.4	18333
 410.9	18341
 411.4	18291
 412.0	18355
 412.5	18399
 413.0	18353
 413.6	18395
 414.1	18363
 414.6	18391
 415.2	18435
 415.7	18377
 416.2	18420
 416.8	18405
 417.3	18399
 417.8	18419
 418.4	18500
 418.9	18443
 419.4	18572
 420.0	18459
 420.5	18526
 421.0	18469
 421.5	18550
 422.1	18535
 422.6	18584
 423.1	18609
 423.7	18578
 424.2	18569
 424.7	18608
 425.3	18580
 425.8	18608
 426.3	18590
 426.9	18651
 427.4	18589
 427.9	18701
 428.5	18646
 429.0	18686
 429.6	18651
 430.1	18725
 430.6	18728
 431.2	18673
 431.7	18764
 432.2	18743
 432.8	18727
 433.3	18832
 433.8	18837
 434.4	18812
 434.9	18833
 435.4	18882
 436.0	18862
 436.5	18870
 437.0	18942
 437.6	18918
 438.1	18973
 438.6	18975
 439.2	19005
 439.7	18991
 440.2	18942
 440.8	18974
 441.3	18979
 441.8	18981
 442.4	18947
 442.9	18973
 443.5	19007
 444.0	19004
 444.5	19026
 445.1	18945
 445.6	18982
 446.1	19007
 446.7	19024
 447.2	19044
 447.7	19043
 448.3	19112
 448.8	19075
 449.3	19114
 449.9	19073
 450.4	19174
 450.9	19214
 451.5	19225
 452.0	19204
 452.6	19235
 453.1	19294
 453.6	19323
 454.2	19217
 454.7	19300
 455.2	19323
 455.8	19378
 456.3	19328
 456.8	19451
 457.4	19387
 457.9	19399
 458.5	19450
 459.0	19411
 459.5	19451
 460.1	19406
 460.6	19450
 461.1	19431
 461.7	19479
 462.2	19435
 462.7	19479
 463.3	19409
 463.8	19481
 464.4	19543
 464.9	19489
 465.4	19559
 466.0	19466
 466.5	19529
 467.0	19479
 467.6	19548
 468.1	19627
 468.7	19572
 469.2	19517
 469.7	19609
 470.3	19596
 470.8	19639
 471.3	19626
 471.9	19592
 472.4	19651
 473.0	19700
 473.5	19720
 474.0	19724
 474.6	19735
 475.1	19735
 475.6	19801
 476.2	19825
 476.7	19803
 477.3	19866
 477.8	19816
 478.3	19755
 478.9	19947
 479.4	19848
 479.9	19864
 480.5	19859
 481.0	19890
 481.6	19924
 482.1	19980
 482.6	19975
 483.2	19987
 483.7	20104
 484.2	20047
 484.8	19908
 485.3	20004
 485.9	20083
 486.4	20050
 486.9	20077
 487.5	20049
 488.0	20060
 488.6	20122
 489.1	20147
 489.6	20198
 490.2	20193
 490.7	20162
 491.2	20138
 491.8	20194
 492.3	20147
 492.9	20202
 493.4	20214
 493.9	20225
 494.5	20233
 495.0	20290
 495.6	20207
 496.1	20228
 496.6	20278
 497.2	20203
 497.7	20169
 498.2	20251
 498.8	20268
 499.3	20187
 499.9	20247
 500.4	20241
 500.9	20226
 501.5	20229
 502.0	20302
 502.6	20285
 503.1	20373
 503.6	20344
 504.2	20314
 504.7	20332
 505.2	20408
 505.8	20411
 506.3	20500
 506.9	20526
 507.4	20513
 507.9	20509
 508.5	20551
 509.0	20612
 509.6	20693
 510.1	20677
 510.6	20728
 511.2	20767
 511.7	20763
 512.2	20847
 512.8	20878
 513.3	20859
 513.9	20859
 514.4	20928
 514.9	21005
 515.5	20907
 516.0	20983
 516.6	20959
 517.1	21008
 517.6	20982
 518.2	20957
 518.7	20891
 519.3	20938
 519.8	20971
 520.3	20961
 520.9	20905
 521.4	20907
 521.9	20947
 522.5	20864
 523.0	20876
 523.6	20904
 524.1	20764
 524.6	20811
 525.2	20830
 525.7	20864
 526.3	20793
 526.8	20882
 527.3	20839
 527.9	20870
 528.4	20858
 528.9	20924
 529.5	20950
 530.0	20939
 530.6	20998
 531.1	21027
 531.6	20954
 532.2	21089
 532.7	21062
 533.3	21113
 533.8	21247
 534.3	21297
 534.9	21313
 535.4	21284
 536.0	21369
 536.5	21429
 537.0	21414
 537.6	21453
 538.1	21523
 538.6	21553
 539.2	21511
 539.7	21540
 540.3	21643
 540.8	21625
 541.3	21593
 541.9	21632
 542.4	21643
 543.0	21704
 543.5	21674
 544.0	21654
 544.6	21694
 545.1	21711
 545.6	21741
 546.2	21724
 546.7	21630
 547.3	21697
 547.8	21666
 548.3	21719
 548.9	21631
 549.4	21631
 550.0	21600
 550.5	21653
 551.0	21695
 551.6	21646
 552.1	21656
 552.6	21656
 553.2	21630
 553.7	21601
 554.3	21639
 554.8	21711
 555.3	21574
 555.9	21640
 556.4	21605
 556.9	21707
 557.5	21738
 558.0	21702
 558.6	21682
 559.1	21758
 559.6	21747
 560.2	21761
 560.7	21765
 561.3	21749
 561.8	21732
 562.3	21858
 562.9	21844
 563.4	21882
 563.9	21878
 564.5	21887
 565.0	21878
 565.6	21912
 566.1	21908
 566.6	21919
 567.2	21907
 567.7	22007
 568.2	21934
 568.8	21942
 569.3	21919
 569.9	21983
 570.4	21974
 570.9	21951
 571.5	21943
 572.0	21939
 572.5	22003
 573.1	21948
 573.6	22008
 574.1	22001
 574.7	22003
 575.2	21979
 575.8	22024
 576.3	22103
 576.8	22073
 577.4	22095
 577.9	22117
 578.4	22082
 579.0	22107
 579.5	22211
 580.1	22143
 580.6	22165
 581.1	22249
 581.7	22280
 582.2	22225
 582.7	22280
 583.3	22335
 583.8	22309
 584.3	22273
 584.9	22337
 585.4	22348
 586.0	22336
 586.5	22367
 587.0	22338
 587.6	22424
 588.1	22371
 588.6	22444
 589.2	22392
 589.7	22414
 590.2	22408
 590.8	22399
 591.3	22423
 591.9	22371
 592.4	22424
 592.9	22360
 593.5	22347
 594.0	22326
 594.5	22343
 595.1	22308
 595.6	22286
 596.1	22332
 596.7	22281
 597.2	22312
 597.7	22244
 598.3	22247
 598.8	22212
 599.3	22216
 599.9	22183
 600.4	22167
 601.0	22172
 601.5	22153
 602.0	22139
 602.6	22089
 603.1	22100
 603.6	22104
 604.2	22192
 604.7	22115
 605.2	22174
 605.8	22099
 606.3	22127
 606.8	22198
 607.4	22183
 607.9	22222
 608.4	22171
 609.0	22212
 609.5	22267
 610.0	22250
 610.6	22350
 611.1	22278
 611.6	22318
 612.2	22324
 612.7	22392
 613.2	22391
 613.8	22340
 614.3	22383
 614.8	22441
 615.4	22392
 615.9	22484
 616.4	22562
 617.0	22528
 617.5	22631
 618.0	22654
 618.6	22607
 619.1	22646
 619.6	22739
 620.2	22762
 620.7	22840
 621.2	22825
 621.8	22878
 622.3	22915
 622.8	22900
 623.4	22940
 623.9	23011
 624.4	22997
 625.0	23003
 625.5	23007
 626.0	23028
 626.6	23078
 627.1	23067
 627.6	23022
 628.2	22987
 628.7	23019
 629.2	23004
 629.8	23026
 630.3	23028
 630.8	23001
 631.4	22978
 631.9	22982
 632.4	22875
 632.9	22872
 633.5	22858
 634.0	22807
 634.5	22867
 635.1	22792
 635.6	22760
 636.1	22728
 636.7	22761
 637.2	22743
 637.7	22641
 638.3	22725
 638.8	22706
 639.3	22703
 639.8	22646
 640.4	22653
 640.9	22659
 641.4	22573
 642.0	22551
 642.5	22566
 643.0	22532
 643.6	22611
 644.1	22565
 644.6	22579
 645.1	22606
 645.7	22587
 646.2	22551
 646.7	22568
 647.3	22597
 647.8	22607
 648.3	22588
 648.9	22628
 649.4	22543
 649.9	22623
 650.4	22630
 651.0	22680
 651.5	22700
 652.0	22744
 652.6	22703
 653.1	22783
 653.6	22712
 654.1	22788
 654.7	22753
 655.2	22839
 655.7	22889
 656.3	22908
 656.8	22855
 657.3	22917
 657.8	22880
 658.4	22883
 658.9	22903
 659.4	22982
 659.9	22983
 660.5	22957
 661.0	23007
 661.5	23053
 662.1	23023
 662.6	23032
 663.1	23003
 663.6	23081
 664.2	23039
 664.7	23009
 665.2	22943
 665.7	23067
 666.3	23032
 666.8	23036
 667.3	23032
 667.8	22989
 668.4	23023
 668.9	23025
 669.4	22995
 669.9	23031
 670.5	22960
 671.0	22976
 671.5	22925
 672.0	22978
 672.6	22981
 673.1	23001
 673.6	22909
 674.1	22939
 674.7	22929
 675.2	22968
 675.7	22829
 676.2	22831
 676.8	22888
 677.3	22895
 677.8	22815
 678.3	22927
 678.9	22854
 679.4	22801
 679.9	22852
 680.4	22855
 681.0	22819
 681.5	22849
 682.0	22817
 682.5	22840
 683.1	22753
 683.6	22792
 684.1	22732
 684.6	22831
 685.1	22769
 685.7	22788
 686.2	22751
 686.7	22724
 687.2	22712
 687.8	22776
 688.3	22714
 688.8	22741
 689.3	22686
 689.8	22711
 690.4	22707
 690.9	22710
 691.4	22718
 691.9	22745
 692.4	22701
 693.0	22765
 693.5	22744
 694.0	22721
 694.5	22721
 695.1	22697
 695.6	22662
 696.1	22731
 696.6	22714
 697.1	22731
 697.7	22756
 698.2	22693
 698.7	22714
 699.2	22676
 699.7	22687
 700.3	22661
 700.8	22642
 701.3	22739
 701.8	22697
 702.3	22639
 702.8	22646
 703.4	22616
 703.9	22627
 704.4	22611
 704.9	22574
 705.4	22581
 706.0	22660
 706.5	22645
 707.0	22561
 707.5	22543
 708.0	22566
 708.5	22511
 709.1	22575
 709.6	22531
 710.1	22498
 710.6	22475
 711.1	22470
 711.7	22490
 712.2	22479
 712.7	22494
 713.2	22459
 713.7	22459
 714.2	22415
 714.8	22499
 715.3	22443
 715.8	22446
 716.3	22451
 716.8	22370
 717.3	22352
 717.8	22457
 718.4	22468
 718.9	22402
 719.4	22482
 719.9	22397
 720.4	22442
 720.9	22452
 721.4	22443
 722.0	22463
 722.5	22454
 723.0	22438
 723.5	22453
 724.0	22422
 724.5	22414
 725.0	22434
 725.6	22372
 726.1	22425
 726.6	22536
 727.1	22482
 727.6	22511
 728.1	22533
 728.6	22484
 729.1	22487
 729.7	22466
 730.2	22499
 730.7	22532
 731.2	22557
 731.7	22542
 732.2	22551
 732.7	22527
 733.2	22567
 733.8	22547
 734.3	22569
 734.8	22545
 735.3	22569
 735.8	22558
 736.3	22535
 736.8	22567
 737.3	22608
 737.8	22561
 738.4	22559
 738.9	22519
 739.4	22605
 739.9	22587
 740.4	22596
 740.9	22586
 741.4	22583
 741.9	22568
 742.4	22594
 742.9	22573
 743.4	22652
 744.0	22567
 744.5	22563
 745.0	22574
 745.5	22644
 746.0	22608
 746.5	22620
 747.0	22561
 747.5	22543
 748.0	22505
 748.5	22524
 749.0	22536
 749.5	22614
 750.0	22448
 750.5	22495
 751.1	22501
 751.6	22496
 752.1	22480
 752.6	22443
 753.1	22468
 753.6	22404
 754.1	22369
 754.6	22403
 755.1	22358
 755.6	22351
 756.1	22274
 756.6	22357
 757.1	22323
 757.6	22293
 758.1	22251
 758.6	22260
 759.1	22183
 759.6	22210
 760.1	22147
 760.7	22103
 761.2	22177
 761.7	22110
 762.2	22087
 762.7	22128
 763.2	21990
 763.7	22065
 764.2	21994
 764.7	21992
 765.2	22007
 765.7	21972
 766.2	21926
 766.7	21956
 767.2	21897
 767.7	21893
 768.2	21869
 768.7	21821
 769.2	21805
 769.7	21847
 770.2	21802
 770.7	21803
 771.2	21776
 771.7	21745
 772.2	21745
 772.7	21786
 773.2	21763
 773.7	21705
 774.2	21651
 774.7	21697
 775.2	21679
 775.7	21646
 776.2	21637
 776.7	21663
 777.2	21590
 777.7	21662
 778.2	21634
 778.7	21664
 779.2	21674
 779.7	21693
 780.2	21539
 780.7	21603
 781.2	21606
 781.7	21668
 782.2	21587
 782.6	21658
 783.1	21657
 783.6	21623
 784.1	21588
 784.6	21571
 785.1	21580
 785.6	21573
 786.1	21601
 786.6	21612
 787.1	21557
 787.6	21557
 788.1	21544
 788.6	21534
 789.1	21523
 789.6	21554
 790.1	21558
 790.6	21551
 791.1	21458
 791.6	21454
 792.0	21478
 792.5	21500
 793.0	21484
 793.5	21464
 794.0	21395
 794.5	21475
 795.0	21456
 795.5	21423
 796.0	21428
 796.5	21367
 797.0	21385
 797.5	21414
 798.0	21266
 798.4	21299
 798.9	21278
 799.4	21281
 799.9	21277
 800.4	21143
 800.9	21227
 801.4	21273
 801.9	21229
 802.4	21144
 802.9	21199
 803.3	21176
 803.8	21135
 804.3	21081
 804.8	21125
 805.3	21068
 805.8	21037
 806.3	21028
 806.8	21002
 807.2	20984
 807.7	20954
 808.2	20965
 808.7	20874
 809.2	20880
 809.7	20804
 810.2	20850
 810.7	20788
 811.1	20790
 811.6	20780
 812.1	20722
 812.6	20681
 813.1	20713
 813.6	20727
 814.1	20693
 814.5	20647
 815.0	20654
 815.5	20607
 816.0	20562
 816.5	20613
 817.0	20557
 817.4	20535
 817.9	20558
 818.4	20490
 818.9	20565
 819.4	20504
 819.9	20484
 820.3	20443
 820.8	20444
 821.3	20431
 821.8	20428
 822.3	20378
 822.7	20361
 823.2	20408
 823.7	20356
 824.2	20357
 824.7	20332
 825.2	20338
 825.6	20312
 826.1	20305
 826.6	20354
 827.1	20333
 827.6	20317
 828.0	20259
 828.5	20228
 829.0	20255
 829.5	20198
 829.9	20203
 830.4	20252
 830.9	20233
 831.4	20255
 831.9	20206
 832.3	20279
 832.8	20218
 833.3	20215
 833.8	20287
 834.2	20278
 834.7	20123
 835.2	20211
 835.7	20211
 836.1	20201
 836.6	20188
 837.1	20183
 837.6	20188
 838.0	20215
 838.5	20236
 839.0	20238
 839.5	20226
 839.9	20146
 840.4	20147
 840.9	20118
 841.4	20151
 841.8	20165
 842.3	20174
 842.8	20193
 843.3	20184
 843.7	20090
 844.2	20078
 844.7	20156
 845.1	20130
 845.6	20052
 846.1	20070
 846.6	20093
 847.0	20003
 847.5	20042
 848.0	20022
 848.4	20055
 848.9	20020
 849.4	20004
 849.8	20022
 850.3	20010
 850.8	20056
 851.3	20013
 851.7	20006
 852.2	20011
 852.7	19997
 853.1	19974
 853.6	19923
 854.1	19959
 854.5	19923
 855.0	19907
 855.5	19896
 855.9	19952
 856.4	19935
 856.9	19853
 857.3	19898
 857.8	19866
 858.3	19903
 858.7	19852
 859.2	19862
 859.7	19858
 860.1	19903
 860.6	19888
 861.1	19823
 861.5	19860
 862.0	19863
 862.4	19832
 862.9	19794
 863.4	19832
 863.8	19826
 864.3	19823
 864.8	19736
 865.2	19778
 865.7	19807
 866.1	19809
 866.6	19733
 867.1	19799
 867.5	19783
 868.0	19757
 868.5	19716
 868.9	19711
 869.4	19804
 869.8	19758
 870.3	19709
 870.8	19779
 871.2	19730
 871.7	19719
 872.1	19668
 872.6	19720
 873.0	19690
 873.5	19759
 874.0	19749
 874.4	19633
 874.9	19658
 875.3	19613
 875.8	19516
 876.2	19313
 876.7	19175
 877.2	18856
 877.6	18468
 878.1	18084
