#xlabel Wavelength (nm)
#ylabel Spectrometer Array Counts
#title Exposure time is 10000 ms
## lambda	counts
 349.8	16708
 350.3	16953
 350.8	17176
 351.3	17349
 351.9	17440
 352.4	17553
 352.9	17625
 353.4	17600
 354.0	17611
 354.5	17656
 355.0	17670
 355.5	17689
 356.0	17655
 356.6	17629
 357.1	17674
 357.6	17653
 358.1	17687
 358.7	17625
 359.2	17640
 359.7	17656
 360.2	17688
 360.8	17652
 361.3	17752
 361.8	17695
 362.3	17720
 362.9	17678
 363.4	17747
 363.9	17746
 364.4	17769
 364.9	17691
 365.5	17755
 366.0	17735
 366.5	17691
 367.0	17736
 367.6	17757
 368.1	17758
 368.6	17694
 369.1	17750
 369.7	17793
 370.2	17720
 370.7	17715
 371.2	17758
 371.8	17811
 372.3	17734
 372.8	17806
 373.3	17816
 373.9	17761
 374.4	17777
 374.9	17822
 375.5	17720
 376.0	17837
 376.5	17801
 377.0	17828
 377.6	17768
 378.1	17849
 378.6	17782
 379.1	17779
 379.7	17767
 380.2	17838
 380.7	17838
 381.2	17791
 381.8	17784
 382.3	17829
 382.8	17804
 383.4	17852
 383.9	17804
 384.4	17944
 384.9	17861
 385.5	17875
 386.0	17875
 386.5	17947
 387.1	17880
 387.6	17899
 388.1	17901
 388.6	17914
 389.2	17903
 389.7	17926
 390.2	17902
 390.8	17985
 391.3	17956
 391.8	17952
 392.3	17941
 392.9	17942
 393.4	17927
 393.9	17997
 394.5	18004
 395.0	17951
 395.5	17971
 396.0	17970
 396.6	17942
 397.1	18033
 397.6	18020
 398.2	18027
 398.7	18019
 399.2	18119
 399.8	17993
 400.3	18053
 400.8	18097
 401.3	18074
 401.9	18097
 402.4	18113
 402.9	18102
 403.5	18125
 404.0	18110
 404.5	18062
 405.1	18077
 405.6	18168
 406.1	18137
 406.7	18150
 407.2	18157
 407.7	18235
 408.2	18225
 408.8	18230
 409.3	18261
 409.8	18304
 410.4	18271
 410.9	18275
 411.4	18228
 412.0	18289
 412.5	18337
 413.0	18293
 413.6	18331
 414.1	18291
 414.6	18331
 415.2	18371
 415.7	18313
 416.2	18359
 416.8	18341
 417.3	18333
 417.8	18350
 418.4	18438
 418.9	18378
 419.4	18503
 420.0	18396
 420.5	18460
 421.0	18405
 421.5	18487
 422.1	18469
 422.6	18516
 423.1	18541
 423.7	18513
 424.2	18497
 424.7	18539
 425.3	18511
 425.8	18543
 426.3	18526
 426.9	18584
 427.4	18526
 427.9	18634
 428.5	18579
 429.0	18624
 429.6	18584
 430.1	18658
 430.6	18658
 431.2	18605
 431.7	18707
 432.2	18675
 432.8	18659
 433.3	18768
 433.8	18772
 434.4	18746
 434.9	18767
 435.4	18814
 436.0	18803
 436.5	18798
 437.0	18879
 437.6	18855
 438.1	18905
 438.6	18909
 439.2	18943
 439.7	18923
 440.2	18874
 440.8	18905
 441.3	18915
 441.8	18910
 442.4	18878
 442.9	18908
 443.5	18944
 444.0	18941
 444.5	18962
 445.1	18887
 445.6	18919
 446.1	18943
 446.7	18963
 447.2	18978
 447.7	18975
 448.3	19042
 448.8	19011
 449.3	19045
 449.9	19006
 450.4	19109
 450.9	19155
 451.5	19161
 452.0	19142
 452.6	19169
 453.1	19227
 453.6	19250
 454.2	19156
 454.7	19238
 455.2	19259
 455.8	19311
 456.3	19262
 456.8	19387
 457.4	19315
 457.9	19334
 458.5	19381
 459.0	19342
 459.5	19381
 460.1	19339
 460.6	19387
 461.1	19369
 461.7	19415
 462.2	19365
 462.7	19409
 463.3	19347
 463.8	19415
 464.4	19480
 464.9	19429
 465.4	19487
 466.0	19399
 466.5	19472
 467.0	19413
 467.6	19483
 468.1	19569
 468.7	19506
 469.2	19448
 469.7	19546
 470.3	19530
 470.8	19575
 471.3	19558
 471.9	19529
 472.4	19587
 473.0	19636
 473.5	19656
 474.0	19658
 474.6	19665
 475.1	19667
 475.6	19741
 476.2	19755
 476.7	19743
 477.3	19802
 477.8	19753
 478.3	19690
 478.9	19882
 479.4	19783
 479.9	19798
 480.5	19796
 481.0	19828
 481.6	19859
 482.1	19919
 482.6	19913
 483.2	19922
 483.7	20039
 484.2	19983
 484.8	19843
 485.3	19943
 485.9	20018
 486.4	19990
 486.9	20011
 487.5	19985
 488.0	19993
 488.6	20060
 489.1	20078
 489.6	20130
 490.2	20130
 490.7	20099
 491.2	20073
 491.8	20129
 492.3	20089
 492.9	20139
 493.4	20151
 493.9	20161
 494.5	20170
 495.0	20224
 495.6	20145
 496.1	20160
 496.6	20210
 497.2	20134
 497.7	20103
 498.2	20190
 498.8	20210
 499.3	20130
 499.9	20180
 500.4	20182
 500.9	20163
 501.5	20167
 502.0	20241
 502.6	20225
 503.1	20315
 503.6	20290
 504.2	20257
 504.7	20272
 505.2	20346
 505.8	20352
 506.3	20437
 506.9	20467
 507.4	20447
 507.9	20445
 508.5	20492
 509.0	20549
 509.6	20626
 510.1	20615
 510.6	20663
 511.2	20700
 511.7	20698
 512.2	20777
 512.8	20815
 513.3	20792
 513.9	20795
 514.4	20860
 514.9	20935
 515.5	20847
 516.0	20918
 516.6	20897
 517.1	20939
 517.6	20917
 518.2	20894
 518.7	20827
 519.3	20870
 519.8	20904
 520.3	20897
 520.9	20842
 521.4	20842
 521.9	20888
 522.5	20799
 523.0	20818
 523.6	20846
 524.1	20696
 524.6	20750
 525.2	20771
 525.7	20809
 526.3	20740
 526.8	20825
 527.3	20779
 527.9	20804
 528.4	20796
 528.9	20868
 529.5	20887
 530.0	20879
 530.6	20940
 531.1	20962
 531.6	20897
 532.2	21022
 532.7	20996
 533.3	21052
 533.8	21182
 534.3	21235
 534.9	21252
 535.4	21213
 536.0	21297
 536.5	21360
 537.0	21343
 537.6	21386
 538.1	21450
 538.6	21483
 539.2	21443
 539.7	21471
 540.3	21581
 540.8	21558
 541.3	21529
 541.9	21564
 542.4	21577
 543.0	21639
 543.5	21603
 544.0	21586
 544.6	21627
 545.1	21642
 545.6	21672
 546.2	21657
 546.7	21572
 547.3	21631
 547.8	21599
 548.3	21650
 548.9	21561
 549.4	21563
 550.0	21530
 550.5	21591
 551.0	21631
 551.6	21577
 552.1	21594
 552.6	21590
 553.2	21561
 553.7	21539
 554.3	21576
 554.8	21645
 555.3	21510
 555.9	21578
 556.4	21544
 556.9	21645
 557.5	21678
 558.0	21633
 558.6	21621
 559.1	21693
 559.6	21686
 560.2	21698
 560.7	21700
 561.3	21679
 561.8	21666
 562.3	21790
 562.9	21775
 563.4	21818
 563.9	21819
 564.5	21823
 565.0	21817
 565.6	21843
 566.1	21839
 566.6	21852
 567.2	21847
 567.7	21946
 568.2	21863
 568.8	21873
 569.3	21851
 569.9	21921
 570.4	21903
 570.9	21884
 571.5	21878
 572.0	21880
 572.5	21934
 573.1	21885
 573.6	21939
 574.1	21935
 574.7	21937
 575.2	21914
 575.8	21956
 576.3	22031
 576.8	22010
 577.4	22027
 577.9	22048
 578.4	22011
 579.0	22040
 579.5	22146
 580.1	22080
 580.6	22104
 581.1	22181
 581.7	22207
 582.2	22162
 582.7	22212
 583.3	22262
 583.8	22245
 584.3	22206
 584.9	22269
 585.4	22279
 586.0	22265
 586.5	22298
 587.0	22271
 587.6	22349
 588.1	22308
 588.6	22378
 589.2	22324
 589.7	22347
 590.2	22339
 590.8	22327
 591.3	22355
 591.9	22306
 592.4	22355
 592.9	22286
 593.5	22275
 594.0	22263
 594.5	22278
 595.1	22243
 595.6	22214
 596.1	22263
 596.7	22212
 597.2	22244
 597.7	22180
 598.3	22190
 598.8	22152
 599.3	22152
 599.9	22121
 600.4	22108
 601.0	22104
 601.5	22085
 602.0	22075
 602.6	22023
 603.1	22036
 603.6	22041
 604.2	22129
 604.7	22043
 605.2	22111
 605.8	22035
 606.3	22065
 606.8	22133
 607.4	22116
 607.9	22156
 608.4	22109
 609.0	22154
 609.5	22202
 610.0	22185
 610.6	22280
 611.1	22213
 611.6	22246
 612.2	22254
 612.7	22325
 613.2	22319
 613.8	22272
 614.3	22315
 614.8	22372
 615.4	22327
 615.9	22417
 616.4	22497
 617.0	22454
 617.5	22563
 618.0	22582
 618.6	22537
 619.1	22579
 619.6	22676
 620.2	22691
 620.7	22771
 621.2	22754
 621.8	22806
 622.3	22843
 622.8	22827
 623.4	22870
 623.9	22941
 624.4	22928
 625.0	22936
 625.5	22943
 626.0	22958
 626.6	23010
 627.1	22995
 627.6	22954
 628.2	22922
 628.7	22951
 629.2	22936
 629.8	22958
 630.3	22959
 630.8	22939
 631.4	22909
 631.9	22917
 632.4	22803
 632.9	22811
 633.5	22795
 634.0	22740
 634.5	22802
 635.1	22725
 635.6	22689
 636.1	22659
 636.7	22693
 637.2	22673
 637.7	22575
 638.3	22661
 638.8	22638
 639.3	22638
 639.8	22583
 640.4	22589
 640.9	22597
 641.4	22510
 642.0	22486
 642.5	22500
 643.0	22467
 643.6	22548
 644.1	22504
 644.6	22517
 645.1	22536
 645.7	22521
 646.2	22482
 646.7	22499
 647.3	22534
 647.8	22537
 648.3	22516
 648.9	22558
 649.4	22480
 649.9	22555
 650.4	22562
 651.0	22609
 651.5	22631
 652.0	22683
 652.6	22633
 653.1	22715
 653.6	22644
 654.1	22720
 654.7	22685
 655.2	22767
 655.7	22810
 656.3	22830
 656.8	22786
 657.3	22852
 657.8	22818
 658.4	22814
 658.9	22833
 659.4	22917
 659.9	22912
 660.5	22889
 661.0	22941
 661.5	22989
 662.1	22952
 662.6	22961
 663.1	22936
 663.6	23007
 664.2	22969
 664.7	22940
 665.2	22874
 665.7	22990
 666.3	22958
 666.8	22959
 667.3	22965
 667.8	22925
 668.4	22950
 668.9	22956
 669.4	22932
 669.9	22958
 670.5	22893
 671.0	22908
 671.5	22858
 672.0	22904
 672.6	22910
 673.1	22927
 673.6	22841
 674.1	22866
 674.7	22854
 675.2	22902
 675.7	22759
 676.2	22761
 676.8	22818
 677.3	22829
 677.8	22747
 678.3	22855
 678.9	22786
 679.4	22732
 679.9	22786
 680.4	22784
 681.0	22748
 681.5	22777
 682.0	22746
 682.5	22767
 683.1	22677
 683.6	22719
 684.1	22670
 684.6	22764
 685.1	22700
 685.7	22714
 686.2	22689
 686.7	22654
 687.2	22643
 687.8	22710
 688.3	22646
 688.8	22670
 689.3	22616
 689.8	22643
 690.4	22634
 690.9	22647
 691.4	22647
 691.9	22667
 692.4	22635
 693.0	22701
 693.5	22667
 694.0	22655
 694.5	22647
 695.1	22629
 695.6	22592
 696.1	22660
 696.6	22648
 697.1	22663
 697.7	22689
 698.2	22627
 698.7	22646
 699.2	22611
 699.7	22619
 700.3	22590
 700.8	22577
 701.3	22670
 701.8	22630
 702.3	22574
 702.8	22578
 703.4	22551
 703.9	22556
 704.4	22543
 704.9	22504
 705.4	22518
 706.0	22591
 706.5	22574
 707.0	22495
 707.5	22474
 708.0	22492
 708.5	22444
 709.1	22508
 709.6	22468
 710.1	22430
 710.6	22402
 711.1	22402
 711.7	22414
 712.2	22411
 712.7	22420
 713.2	22387
 713.7	22394
 714.2	22348
 714.8	22426
 715.3	22377
 715.8	22375
 716.3	22381
 716.8	22299
 717.3	22284
 717.8	22385
 718.4	22398
 718.9	22334
 719.4	22414
 719.9	22326
 720.4	22374
 720.9	22382
 721.4	22377
 722.0	22397
 722.5	22387
 723.0	22375
 723.5	22383
 724.0	22345
 724.5	22343
 725.0	22369
 725.6	22310
 726.1	22353
 726.6	22460
 727.1	22411
 727.6	22443
 728.1	22461
 728.6	22425
 729.1	22409
 729.7	22395
 730.2	22429
 730.7	22455
 731.2	22487
 731.7	22469
 732.2	22483
 732.7	22460
 733.2	22495
 733.8	22481
 734.3	22495
 734.8	22472
 735.3	22499
 735.8	22487
 736.3	22468
 736.8	22497
 737.3	22539
 737.8	22488
 738.4	22490
 738.9	22451
 739.4	22535
 739.9	22521
 740.4	22531
 740.9	22513
 741.4	22511
 741.9	22503
 742.4	22524
 742.9	22499
 743.4	22582
 744.0	22495
 744.5	22490
 745.0	22499
 745.5	22573
 746.0	22543
 746.5	22549
 747.0	22485
 747.5	22470
 748.0	22438
 748.5	22453
 749.0	22467
 749.5	22538
 750.0	22377
 750.5	22425
 751.1	22429
 751.6	22424
 752.1	22411
 752.6	22376
 753.1	22401
 753.6	22331
 754.1	22300
 754.6	22333
 755.1	22291
 755.6	22288
 756.1	22200
 756.6	22286
 757.1	22247
 757.6	22222
 758.1	22185
 758.6	22189
 759.1	22115
 759.6	22135
 760.1	22078
 760.7	22039
 761.2	22109
 761.7	22041
 762.2	22022
 762.7	22065
 763.2	21919
 763.7	21993
 764.2	21924
 764.7	21919
 765.2	21940
 765.7	21900
 766.2	21859
 766.7	21888
 767.2	21831
 767.7	21829
 768.2	21798
 768.7	21752
 769.2	21742
 769.7	21778
 770.2	21737
 770.7	21731
 771.2	21708
 771.7	21669
 772.2	21673
 772.7	21718
 773.2	21692
 773.7	21637
 774.2	21586
 774.7	21626
 775.2	21609
 775.7	21583
 776.2	21571
 776.7	21589
 777.2	21520
 777.7	21588
 778.2	21568
 778.7	21602
 779.2	21599
 779.7	21625
 780.2	21473
 780.7	21537
 781.2	21540
 781.7	21599
 782.2	21517
 782.6	21585
 783.1	21586
 783.6	21553
 784.1	21521
 784.6	21495
 785.1	21513
 785.6	21503
 786.1	21530
 786.6	21543
 787.1	21479
 787.6	21486
 788.1	21471
 788.6	21465
 789.1	21458
 789.6	21482
 790.1	21487
 790.6	21484
 791.1	21391
 791.6	21384
 792.0	21406
 792.5	21427
 793.0	21412
 793.5	21398
 794.0	21327
 794.5	21407
 795.0	21387
 795.5	21353
 796.0	21353
 796.5	21299
 797.0	21324
 797.5	21348
 798.0	21195
 798.4	21230
 798.9	21206
 799.4	21214
 799.9	21209
 800.4	21070
 800.9	21156
 801.4	21201
 801.9	21157
 802.4	21074
 802.9	21124
 803.3	21108
 803.8	21064
 804.3	21009
 804.8	21056
 805.3	21003
 805.8	20966
 806.3	20959
 806.8	20931
 807.2	20916
 807.7	20882
 808.2	20895
 808.7	20802
 809.2	20808
 809.7	20728
 810.2	20783
 810.7	20714
 811.1	20714
 811.6	20706
 812.1	20656
 812.6	20609
 813.1	20645
 813.6	20650
 814.1	20619
 814.5	20577
 815.0	20586
 815.5	20536
 816.0	20490
 816.5	20545
 817.0	20484
 817.4	20459
 817.9	20494
 818.4	20421
 818.9	20487
 819.4	20429
 819.9	20414
 820.3	20377
 820.8	20366
 821.3	20367
 821.8	20355
 822.3	20311
 822.7	20285
 823.2	20341
 823.7	20286
 824.2	20283
 824.7	20259
 825.2	20272
 825.6	20240
 826.1	20235
 826.6	20281
 827.1	20260
 827.6	20250
 828.0	20188
 828.5	20156
 829.0	20186
 829.5	20128
 829.9	20134
 830.4	20179
 830.9	20160
 831.4	20178
 831.9	20138
 832.3	20209
 832.8	20150
 833.3	20143
 833.8	20220
 834.2	20204
 834.7	20049
 835.2	20147
 835.7	20142
 836.1	20130
 836.6	20108
 837.1	20120
 837.6	20112
 838.0	20146
 838.5	20169
 839.0	20166
 839.5	20155
 839.9	20076
 840.4	20074
 840.9	20047
 841.4	20083
 841.8	20096
 842.3	20112
 842.8	20123
 843.3	20116
 843.7	20025
 844.2	20008
 844.7	20087
 845.1	20054
 845.6	19982
 846.1	19997
 846.6	20026
 847.0	19931
 847.5	19970
 848.0	19956
 848.4	19995
 848.9	19955
 849.4	19937
 849.8	19955
 850.3	19943
 850.8	19985
 851.3	19942
 851.7	19938
 852.2	19939
 852.7	19924
 853.1	19902
 853.6	19851
 854.1	19888
 854.5	19853
 855.0	19835
 855.5	19824
 855.9	19877
 856.4	19861
 856.9	19780
 857.3	19826
 857.8	19802
 858.3	19833
 858.7	19778
 859.2	19787
 859.7	19791
 860.1	19835
 860.6	19821
 861.1	19751
 861.5	19791
 862.0	19794
 862.4	19761
 862.9	19724
 863.4	19764
 863.8	19763
 864.3	19758
 864.8	19673
 865.2	19717
 865.7	19743
 866.1	19745
 866.6	19663
 867.1	19738
 867.5	19720
 868.0	19693
 868.5	19643
 868.9	19642
 869.4	19737
 869.8	19690
 870.3	19643
 870.8	19701
 871.2	19651
 871.7	19639
 872.1	19577
 872.6	19624
 873.0	19587
 873.5	19652
 874.0	19633
 874.4	19511
 874.9	19540
 875.3	19491
 875.8	19401
 876.2	19211
 876.7	19081
 877.2	18777
 877.6	18401
 878.1	18026
