#xlabel Wavelength (nm)
#ylabel Spectrometer Array Counts
#title Exposure time is 10000 ms
## lambda	counts
 349.8	17051
 350.3	17360
 350.8	17604
 351.3	17768
 351.9	17830
 352.4	17900
 352.9	17930
 353.4	17864
 354.0	17842
 354.5	17874
 355.0	17875
 355.5	17893
 356.0	17848
 356.6	17822
 357.1	17875
 357.6	17855
 358.1	17881
 358.7	17820
 359.2	17834
 359.7	17853
 360.2	17898
 360.8	17863
 361.3	17957
 361.8	17901
 362.3	17927
 362.9	17889
 363.4	17965
 363.9	17971
 364.4	17987
 364.9	17909
 365.5	17982
 366.0	17965
 366.5	17918
 367.0	17967
 367.6	17991
 368.1	17993
 368.6	17934
 369.1	17991
 369.7	18042
 370.2	17974
 370.7	17975
 371.2	18023
 371.8	18075
 372.3	18005
 372.8	18082
 373.3	18099
 373.9	18048
 374.4	18072
 374.9	18121
 375.5	18024
 376.0	18151
 376.5	18120
 377.0	18142
 377.6	18093
 378.1	18183
 378.6	18121
 379.1	18127
 379.7	18119
 380.2	18198
 380.7	18204
 381.2	18164
 381.8	18163
 382.3	18215
 382.8	18200
 383.4	18246
 383.9	18207
 384.4	18358
 384.9	18275
 385.5	18302
 386.0	18304
 386.5	18376
 387.1	18315
 387.6	18343
 388.1	18346
 388.6	18371
 389.2	18365
 389.7	18396
 390.2	18383
 390.8	18476
 391.3	18458
 391.8	18474
 392.3	18472
 392.9	18481
 393.4	18481
 393.9	18560
 394.5	18573
 395.0	18537
 395.5	18568
 396.0	18573
 396.6	18557
 397.1	18657
 397.6	18657
 398.2	18667
 398.7	18673
 399.2	18777
 399.8	18652
 400.3	18723
 400.8	18771
 401.3	18754
 401.9	18769
 402.4	18801
 402.9	18798
 403.5	18830
 404.0	18832
 404.5	18799
 405.1	18818
 405.6	18921
 406.1	18907
 406.7	18929
 407.2	18951
 407.7	19039
 408.2	19045
 408.8	19063
 409.3	19109
 409.8	19163
 410.4	19139
 410.9	19161
 411.4	19119
 412.0	19191
 412.5	19253
 413.0	19222
 413.6	19272
 414.1	19245
 414.6	19289
 415.2	19345
 415.7	19293
 416.2	19354
 416.8	19351
 417.3	19347
 417.8	19377
 418.4	19478
 418.9	19431
 419.4	19566
 420.0	19467
 420.5	19548
 421.0	19503
 421.5	19593
 422.1	19584
 422.6	19646
 423.1	19682
 423.7	19659
 424.2	19655
 424.7	19701
 425.3	19686
 425.8	19714
 426.3	19708
 426.9	19779
 427.4	19733
 427.9	19845
 428.5	19803
 429.0	19857
 429.6	19835
 430.1	19925
 430.6	19951
 431.2	19914
 431.7	20035
 432.2	20035
 432.8	20032
 433.3	20163
 433.8	20194
 434.4	20198
 434.9	20233
 435.4	20306
 436.0	20312
 436.5	20333
 437.0	20421
 437.6	20416
 438.1	20473
 438.6	20494
 439.2	20535
 439.7	20531
 440.2	20485
 440.8	20519
 441.3	20519
 441.8	20523
 442.4	20503
 442.9	20533
 443.5	20562
 444.0	20561
 444.5	20593
 445.1	20518
 445.6	20561
 446.1	20602
 446.7	20630
 447.2	20669
 447.7	20671
 448.3	20770
 448.8	20755
 449.3	20824
 449.9	20808
 450.4	20941
 450.9	21010
 451.5	21048
 452.0	21062
 452.6	21122
 453.1	21219
 453.6	21262
 454.2	21199
 454.7	21308
 455.2	21357
 455.8	21434
 456.3	21405
 456.8	21551
 457.4	21503
 457.9	21523
 458.5	21577
 459.0	21557
 459.5	21599
 460.1	21566
 460.6	21611
 461.1	21603
 461.7	21654
 462.2	21609
 462.7	21649
 463.3	21589
 463.8	21660
 464.4	21727
 464.9	21686
 465.4	21763
 466.0	21686
 466.5	21769
 467.0	21725
 467.6	21811
 468.1	21913
 468.7	21874
 469.2	21837
 469.7	21950
 470.3	21962
 470.8	22026
 471.3	22035
 471.9	22035
 472.4	22109
 473.0	22178
 473.5	22225
 474.0	22243
 474.6	22287
 475.1	22303
 475.6	22397
 476.2	22426
 476.7	22431
 477.3	22503
 477.8	22475
 478.3	22426
 478.9	22642
 479.4	22561
 479.9	22595
 480.5	22613
 481.0	22661
 481.6	22711
 482.1	22799
 482.6	22811
 483.2	22850
 483.7	22985
 484.2	22951
 484.8	22834
 485.3	22950
 485.9	23053
 486.4	23041
 486.9	23094
 487.5	23071
 488.0	23102
 488.6	23192
 489.1	23230
 489.6	23294
 490.2	23307
 490.7	23290
 491.2	23274
 491.8	23343
 492.3	23307
 492.9	23372
 493.4	23381
 493.9	23409
 494.5	23411
 495.0	23465
 495.6	23391
 496.1	23403
 496.6	23451
 497.2	23367
 497.7	23343
 498.2	23412
 498.8	23425
 499.3	23355
 499.9	23411
 500.4	23410
 500.9	23409
 501.5	23429
 502.0	23517
 502.6	23523
 503.1	23630
 503.6	23635
 504.2	23628
 504.7	23681
 505.2	23783
 505.8	23821
 506.3	23957
 506.9	24023
 507.4	24062
 507.9	24092
 508.5	24191
 509.0	24286
 509.6	24423
 510.1	24444
 510.6	24541
 511.2	24616
 511.7	24661
 512.2	24772
 512.8	24842
 513.3	24855
 513.9	24886
 514.4	24973
 514.9	25069
 515.5	24988
 516.0	25073
 516.6	25035
 517.1	25083
 517.6	25053
 518.2	25020
 518.7	24942
 519.3	24975
 519.8	24980
 520.3	24948
 520.9	24894
 521.4	24871
 521.9	24894
 522.5	24792
 523.0	24782
 523.6	24798
 524.1	24648
 524.6	24679
 525.2	24700
 525.7	24742
 526.3	24687
 526.8	24785
 527.3	24750
 527.9	24792
 528.4	24801
 528.9	24890
 529.5	24937
 530.0	24960
 530.6	25049
 531.1	25105
 531.6	25077
 532.2	25235
 532.7	25261
 533.3	25361
 533.8	25530
 534.3	25637
 534.9	25690
 535.4	25719
 536.0	25842
 536.5	25940
 537.0	25972
 537.6	26050
 538.1	26157
 538.6	26225
 539.2	26218
 539.7	26282
 540.3	26412
 540.8	26417
 541.3	26412
 541.9	26470
 542.4	26491
 543.0	26567
 543.5	26543
 544.0	26527
 544.6	26566
 545.1	26591
 545.6	26617
 546.2	26603
 546.7	26507
 547.3	26563
 547.8	26535
 548.3	26572
 548.9	26481
 549.4	26469
 550.0	26431
 550.5	26489
 551.0	26523
 551.6	26467
 552.1	26474
 552.6	26475
 553.2	26433
 553.7	26415
 554.3	26451
 554.8	26521
 555.3	26388
 555.9	26463
 556.4	26449
 556.9	26565
 557.5	26599
 558.0	26587
 558.6	26593
 559.1	26670
 559.6	26678
 560.2	26710
 560.7	26744
 561.3	26741
 561.8	26745
 562.3	26887
 562.9	26889
 563.4	26957
 563.9	26966
 564.5	26997
 565.0	27002
 565.6	27038
 566.1	27055
 566.6	27067
 567.2	27068
 567.7	27165
 568.2	27109
 568.8	27123
 569.3	27115
 569.9	27183
 570.4	27165
 570.9	27160
 571.5	27164
 572.0	27167
 572.5	27227
 573.1	27191
 573.6	27270
 574.1	27266
 574.7	27284
 575.2	27281
 575.8	27343
 576.3	27439
 576.8	27423
 577.4	27469
 577.9	27503
 578.4	27507
 579.0	27555
 579.5	27679
 580.1	27638
 580.6	27699
 581.1	27803
 581.7	27859
 582.2	27838
 582.7	27911
 583.3	27977
 583.8	27987
 584.3	27966
 584.9	28043
 585.4	28071
 586.0	28082
 586.5	28138
 587.0	28133
 587.6	28224
 588.1	28193
 588.6	28271
 589.2	28235
 589.7	28269
 590.2	28265
 590.8	28254
 591.3	28278
 591.9	28215
 592.4	28256
 592.9	28185
 593.5	28160
 594.0	28135
 594.5	28129
 595.1	28075
 595.6	28028
 596.1	28053
 596.7	27999
 597.2	28002
 597.7	27921
 598.3	27914
 598.8	27871
 599.3	27843
 599.9	27781
 600.4	27749
 601.0	27748
 601.5	27713
 602.0	27693
 602.6	27643
 603.1	27652
 603.6	27665
 604.2	27743
 604.7	27674
 605.2	27743
 605.8	27675
 606.3	27718
 606.8	27799
 607.4	27815
 607.9	27871
 608.4	27845
 609.0	27907
 609.5	27973
 610.0	27980
 610.6	28099
 611.1	28049
 611.6	28133
 612.2	28162
 612.7	28252
 613.2	28288
 613.8	28267
 614.3	28346
 614.8	28426
 615.4	28426
 615.9	28558
 616.4	28669
 617.0	28673
 617.5	28799
 618.0	28876
 618.6	28887
 619.1	28985
 619.6	29115
 620.2	29200
 620.7	29338
 621.2	29369
 621.8	29459
 622.3	29548
 622.8	29580
 623.4	29660
 623.9	29758
 624.4	29773
 625.0	29803
 625.5	29818
 626.0	29842
 626.6	29910
 627.1	29894
 627.6	29854
 628.2	29812
 628.7	29860
 629.2	29842
 629.8	29847
 630.3	29826
 630.8	29790
 631.4	29737
 631.9	29713
 632.4	29571
 632.9	29553
 633.5	29501
 634.0	29427
 634.5	29433
 635.1	29345
 635.6	29295
 636.1	29230
 636.7	29212
 637.2	29175
 637.7	29040
 638.3	29098
 638.8	29049
 639.3	29027
 639.8	28945
 640.4	28933
 640.9	28924
 641.4	28827
 642.0	28785
 642.5	28781
 643.0	28748
 643.6	28819
 644.1	28769
 644.6	28783
 645.1	28791
 645.7	28793
 646.2	28749
 646.7	28774
 647.3	28804
 647.8	28831
 648.3	28807
 648.9	28869
 649.4	28803
 649.9	28887
 650.4	28916
 651.0	28983
 651.5	29018
 652.0	29095
 652.6	29075
 653.1	29180
 653.6	29133
 654.1	29219
 654.7	29220
 655.2	29334
 655.7	29396
 656.3	29433
 656.8	29423
 657.3	29507
 657.8	29487
 658.4	29527
 658.9	29571
 659.4	29660
 659.9	29683
 660.5	29678
 661.0	29739
 661.5	29799
 662.1	29779
 662.6	29801
 663.1	29780
 663.6	29872
 664.2	29825
 664.7	29809
 665.2	29758
 665.7	29866
 666.3	29823
 666.8	29823
 667.3	29823
 667.8	29795
 668.4	29805
 668.9	29803
 669.4	29771
 669.9	29782
 670.5	29710
 671.0	29723
 671.5	29663
 672.0	29699
 672.6	29681
 673.1	29707
 673.6	29611
 674.1	29623
 674.7	29601
 675.2	29628
 675.7	29497
 676.2	29477
 676.8	29520
 677.3	29521
 677.8	29443
 678.3	29517
 678.9	29447
 679.4	29375
 679.9	29429
 680.4	29413
 681.0	29369
 681.5	29388
 682.0	29341
 682.5	29355
 683.1	29267
 683.6	29283
 684.1	29221
 684.6	29304
 685.1	29247
 685.7	29257
 686.2	29231
 686.7	29187
 687.2	29179
 687.8	29229
 688.3	29170
 688.8	29191
 689.3	29134
 689.8	29165
 690.4	29159
 690.9	29167
 691.4	29184
 691.9	29191
 692.4	29169
 693.0	29233
 693.5	29203
 694.0	29198
 694.5	29183
 695.1	29168
 695.6	29140
 696.1	29203
 696.6	29199
 697.1	29212
 697.7	29239
 698.2	29174
 698.7	29197
 699.2	29159
 699.7	29165
 700.3	29127
 700.8	29101
 701.3	29181
 701.8	29141
 702.3	29076
 702.8	29081
 703.4	29058
 703.9	29036
 704.4	29002
 704.9	28954
 705.4	28951
 706.0	29003
 706.5	28977
 707.0	28874
 707.5	28853
 708.0	28854
 708.5	28789
 709.1	28836
 709.6	28781
 710.1	28726
 710.6	28691
 711.1	28665
 711.7	28665
 712.2	28645
 712.7	28637
 713.2	28604
 713.7	28591
 714.2	28545
 714.8	28615
 715.3	28555
 715.8	28545
 716.3	28545
 716.8	28475
 717.3	28459
 717.8	28555
 718.4	28571
 718.9	28508
 719.4	28587
 719.9	28505
 720.4	28549
 720.9	28568
 721.4	28561
 722.0	28591
 722.5	28582
 723.0	28582
 723.5	28598
 724.0	28575
 724.5	28569
 725.0	28605
 725.6	28545
 726.1	28609
 726.6	28712
 727.1	28659
 727.6	28707
 728.1	28730
 728.6	28693
 729.1	28691
 729.7	28676
 730.2	28700
 730.7	28725
 731.2	28761
 731.7	28751
 732.2	28765
 732.7	28739
 733.2	28775
 733.8	28754
 734.3	28778
 734.8	28763
 735.3	28803
 735.8	28801
 736.3	28791
 736.8	28845
 737.3	28898
 737.8	28859
 738.4	28868
 738.9	28831
 739.4	28921
 739.9	28900
 740.4	28931
 740.9	28910
 741.4	28914
 741.9	28913
 742.4	28924
 742.9	28915
 743.4	28971
 744.0	28881
 744.5	28869
 745.0	28866
 745.5	28922
 746.0	28880
 746.5	28885
 747.0	28817
 747.5	28790
 748.0	28755
 748.5	28764
 749.0	28762
 749.5	28821
 750.0	28648
 750.5	28674
 751.1	28662
 751.6	28640
 752.1	28597
 752.6	28550
 753.1	28567
 753.6	28481
 754.1	28431
 754.6	28446
 755.1	28379
 755.6	28365
 756.1	28247
 756.6	28310
 757.1	28261
 757.6	28212
 758.1	28141
 758.6	28117
 759.1	28019
 759.6	28021
 760.1	27944
 760.7	27868
 761.2	27919
 761.7	27853
 762.2	27802
 762.7	27809
 763.2	27667
 763.7	27710
 764.2	27613
 764.7	27577
 765.2	27573
 765.7	27496
 766.2	27432
 766.7	27427
 767.2	27345
 767.7	27309
 768.2	27259
 768.7	27187
 769.2	27147
 769.7	27160
 770.2	27106
 770.7	27078
 771.2	27028
 771.7	26985
 772.2	26970
 772.7	26996
 773.2	26951
 773.7	26876
 774.2	26819
 774.7	26839
 775.2	26797
 775.7	26756
 776.2	26728
 776.7	26742
 777.2	26662
 777.7	26714
 778.2	26676
 778.7	26702
 779.2	26693
 779.7	26705
 780.2	26551
 780.7	26599
 781.2	26587
 781.7	26637
 782.2	26559
 782.6	26616
 783.1	26603
 783.6	26561
 784.1	26514
 784.6	26501
 785.1	26502
 785.6	26499
 786.1	26509
 786.6	26517
 787.1	26453
 787.6	26441
 788.1	26422
 788.6	26403
 789.1	26380
 789.6	26386
 790.1	26389
 790.6	26368
 791.1	26265
 791.6	26245
 792.0	26243
 792.5	26252
 793.0	26206
 793.5	26177
 794.0	26101
 794.5	26160
 795.0	26100
 795.5	26065
 796.0	26039
 796.5	25964
 797.0	25955
 797.5	25963
 798.0	25794
 798.4	25792
 798.9	25743
 799.4	25724
 799.9	25684
 800.4	25529
 800.9	25585
 801.4	25590
 801.9	25507
 802.4	25401
 802.9	25411
 803.3	25362
 803.8	25285
 804.3	25202
 804.8	25215
 805.3	25134
 805.8	25069
 806.3	25018
 806.8	24964
 807.2	24916
 807.7	24855
 808.2	24826
 808.7	24721
 809.2	24685
 809.7	24585
 810.2	24603
 810.7	24508
 811.1	24477
 811.6	24434
 812.1	24353
 812.6	24275
 813.1	24285
 813.6	24272
 814.1	24219
 814.5	24152
 815.0	24135
 815.5	24058
 816.0	23988
 816.5	24017
 817.0	23937
 817.4	23898
 817.9	23895
 818.4	23800
 818.9	23849
 819.4	23779
 819.9	23731
 820.3	23679
 820.8	23656
 821.3	23635
 821.8	23620
 822.3	23539
 822.7	23494
 823.2	23531
 823.7	23471
 824.2	23451
 824.7	23409
 825.2	23405
 825.6	23359
 826.1	23338
 826.6	23367
 827.1	23329
 827.6	23313
 828.0	23242
 828.5	23202
 829.0	23215
 829.5	23147
 829.9	23134
 830.4	23175
 830.9	23141
 831.4	23152
 831.9	23092
 832.3	23157
 832.8	23082
 833.3	23074
 833.8	23141
 834.2	23123
 834.7	22957
 835.2	23044
 835.7	23027
 836.1	23011
 836.6	22979
 837.1	22971
 837.6	22974
 838.0	22992
 838.5	23000
 839.0	22994
 839.5	22973
 839.9	22885
 840.4	22891
 840.9	22842
 841.4	22874
 841.8	22885
 842.3	22889
 842.8	22885
 843.3	22879
 843.7	22767
 844.2	22745
 844.7	22814
 845.1	22775
 845.6	22697
 846.1	22701
 846.6	22729
 847.0	22621
 847.5	22663
 848.0	22623
 848.4	22648
 848.9	22598
 849.4	22562
 849.8	22567
 850.3	22558
 850.8	22583
 851.3	22529
 851.7	22510
 852.2	22496
 852.7	22479
 853.1	22441
 853.6	22373
 854.1	22397
 854.5	22347
 855.0	22321
 855.5	22295
 855.9	22331
 856.4	22295
 856.9	22199
 857.3	22231
 857.8	22181
 858.3	22188
 858.7	22125
 859.2	22132
 859.7	22132
 860.1	22173
 860.6	22125
 861.1	22052
 861.5	22074
 862.0	22060
 862.4	22010
 862.9	21963
 863.4	21990
 863.8	21973
 864.3	21950
 864.8	21858
 865.2	21886
 865.7	21887
 866.1	21893
 866.6	21799
 867.1	21858
 867.5	21827
 868.0	21790
 868.5	21735
 868.9	21712
 869.4	21793
 869.8	21741
 870.3	21685
 870.8	21733
 871.2	21678
 871.7	21657
 872.1	21587
 872.6	21620
 873.0	21584
 873.5	21652
 874.0	21635
 874.4	21542
 874.9	21599
 875.3	21599
 875.8	21557
 876.2	21424
 876.7	21311
 877.2	20975
 877.6	20478
 878.1	19881
