#xlabel Wavelength (nm)
#ylabel Spectrometer Array Counts
#title Exposure time is 12000 ms
## lambda	counts
 349.8	20555
 350.3	20811
 350.8	21064
 351.3	21291
 351.9	21426
 352.4	21575
 352.9	21675
 353.4	21666
 354.0	21684
 354.5	21755
 355.0	21767
 355.5	21787
 356.0	21754
 356.6	21708
 357.1	21757
 357.6	21723
 358.1	21761
 358.7	21691
 359.2	21710
 359.7	21722
 360.2	21755
 360.8	21708
 361.3	21811
 361.8	21747
 362.3	21772
 362.9	21727
 363.4	21805
 363.9	21802
 364.4	21829
 364.9	21724
 365.5	21809
 366.0	21786
 366.5	21725
 367.0	21779
 367.6	21799
 368.1	21806
 368.6	21721
 369.1	21783
 369.7	21837
 370.2	21741
 370.7	21743
 371.2	21785
 371.8	21849
 372.3	21751
 372.8	21827
 373.3	21844
 373.9	21775
 374.4	21791
 374.9	21841
 375.5	21707
 376.0	21853
 376.5	21795
 377.0	21830
 377.6	21769
 378.1	21841
 378.6	21758
 379.1	21766
 379.7	21739
 380.2	21820
 380.7	21815
 381.2	21761
 381.8	21744
 382.3	21779
 382.8	21755
 383.4	21799
 383.9	21744
 384.4	21910
 384.9	21798
 385.5	21815
 386.0	21814
 386.5	21890
 387.1	21808
 387.6	21827
 388.1	21817
 388.6	21833
 389.2	21812
 389.7	21828
 390.2	21800
 390.8	21901
 391.3	21854
 391.8	21836
 392.3	21809
 392.9	21782
 393.4	21775
 393.9	21846
 394.5	21833
 395.0	21766
 395.5	21788
 396.0	21782
 396.6	21734
 397.1	21830
 397.6	21829
 398.2	21819
 398.7	21812
 399.2	21923
 399.8	21776
 400.3	21836
 400.8	21877
 401.3	21843
 401.9	21854
 402.4	21871
 402.9	21849
 403.5	21875
 404.0	21850
 404.5	21790
 405.1	21787
 405.6	21884
 406.1	21841
 406.7	21841
 407.2	21835
 407.7	21910
 408.2	21893
 408.8	21887
 409.3	21902
 409.8	21947
 410.4	21898
 410.9	21893
 411.4	21825
 412.0	21887
 412.5	21931
 413.0	21868
 413.6	21904
 414.1	21854
 414.6	21874
 415.2	21919
 415.7	21842
 416.2	21885
 416.8	21855
 417.3	21831
 417.8	21845
 418.4	21939
 418.9	21854
 419.4	22004
 420.0	21859
 420.5	21921
 421.0	21854
 421.5	21938
 422.1	21903
 422.6	21953
 423.1	21971
 423.7	21929
 424.2	21905
 424.7	21933
 425.3	21908
 425.8	21921
 426.3	21898
 426.9	21961
 427.4	21878
 427.9	22007
 428.5	21929
 429.0	21953
 429.6	21903
 430.1	21979
 430.6	21962
 431.2	21877
 431.7	21975
 432.2	21918
 432.8	21881
 433.3	21981
 433.8	21970
 434.4	21921
 434.9	21919
 435.4	21963
 436.0	21926
 436.5	21909
 437.0	21974
 437.6	21933
 438.1	21984
 438.6	21983
 439.2	22006
 439.7	21995
 440.2	21923
 440.8	21957
 441.3	21962
 441.8	21957
 442.4	21915
 442.9	21947
 443.5	21997
 444.0	21978
 444.5	22003
 445.1	21898
 445.6	21927
 446.1	21945
 446.7	21960
 447.2	21972
 447.7	21939
 448.3	22005
 448.8	21948
 449.3	21970
 449.9	21893
 450.4	21989
 450.9	22012
 451.5	21994
 452.0	21945
 452.6	21944
 453.1	21998
 453.6	21987
 454.2	21831
 454.7	21903
 455.2	21917
 455.8	21957
 456.3	21877
 456.8	22013
 457.4	21911
 457.9	21923
 458.5	21966
 459.0	21915
 459.5	21959
 460.1	21899
 460.6	21945
 461.1	21935
 461.7	21980
 462.2	21933
 462.7	21973
 463.3	21885
 463.8	21959
 464.4	22030
 464.9	21959
 465.4	22035
 466.0	21910
 466.5	21987
 467.0	21905
 467.6	21967
 468.1	22061
 468.7	21969
 469.2	21874
 469.7	21975
 470.3	21934
 470.8	21967
 471.3	21931
 471.9	21871
 472.4	21925
 473.0	21959
 473.5	21962
 474.0	21943
 474.6	21935
 475.1	21923
 475.6	21989
 476.2	21994
 476.7	21962
 477.3	22016
 477.8	21937
 478.3	21849
 478.9	22071
 479.4	21935
 479.9	21935
 480.5	21909
 481.0	21922
 481.6	21938
 482.1	21995
 482.6	21959
 483.2	21951
 483.7	22075
 484.2	21991
 484.8	21799
 485.3	21895
 485.9	21973
 486.4	21920
 486.9	21932
 487.5	21875
 488.0	21871
 488.6	21938
 489.1	21939
 489.6	21993
 490.2	21978
 490.7	21926
 491.2	21876
 491.8	21942
 492.3	21884
 492.9	21935
 493.4	21940
 493.9	21954
 494.5	21956
 495.0	22029
 495.6	21941
 496.1	21956
 496.6	22024
 497.2	21929
 497.7	21887
 498.2	21996
 498.8	22015
 499.3	21914
 499.9	21983
 500.4	21972
 500.9	21951
 501.5	21929
 502.0	21999
 502.6	21957
 503.1	22047
 503.6	21992
 504.2	21927
 504.7	21925
 505.2	21973
 505.8	21942
 506.3	22016
 506.9	22006
 507.4	21945
 507.9	21891
 508.5	21916
 509.0	21942
 509.6	22001
 510.1	21948
 510.6	21968
 511.2	21970
 511.7	21937
 512.2	21999
 512.8	22006
 513.3	21947
 513.9	21915
 514.4	21978
 514.9	22053
 515.5	21935
 516.0	22019
 516.6	21978
 517.1	22039
 517.6	22021
 518.2	21999
 518.7	21929
 519.3	22003
 519.8	22053
 520.3	22055
 520.9	22005
 521.4	22022
 521.9	22101
 522.5	22011
 523.0	22050
 523.6	22093
 524.1	21931
 524.6	21990
 525.2	22017
 525.7	22061
 526.3	21960
 526.8	22056
 527.3	21995
 527.9	22009
 528.4	21984
 528.9	22037
 529.5	22043
 530.0	22015
 530.6	22061
 531.1	22047
 531.6	21939
 532.2	22048
 532.7	21983
 533.3	22007
 533.8	22131
 534.3	22146
 534.9	22123
 535.4	22037
 536.0	22101
 536.5	22126
 537.0	22066
 537.6	22078
 538.1	22117
 538.6	22126
 539.2	22039
 539.7	22042
 540.3	22158
 540.8	22100
 541.3	22045
 541.9	22075
 542.4	22064
 543.0	22141
 543.5	22093
 544.0	22053
 544.6	22112
 545.1	22121
 545.6	22163
 546.2	22142
 546.7	22036
 547.3	22107
 547.8	22090
 548.3	22145
 548.9	22047
 549.4	22055
 550.0	22025
 550.5	22099
 551.0	22150
 551.6	22090
 552.1	22115
 552.6	22118
 553.2	22086
 553.7	22058
 554.3	22107
 554.8	22175
 555.3	22009
 555.9	22078
 556.4	22031
 556.9	22134
 557.5	22163
 558.0	22107
 558.6	22073
 559.1	22145
 559.6	22118
 560.2	22111
 560.7	22106
 561.3	22065
 561.8	22025
 562.3	22149
 562.9	22127
 563.4	22155
 563.9	22133
 564.5	22139
 565.0	22111
 565.6	22131
 566.1	22122
 566.6	22124
 567.2	22112
 567.7	22226
 568.2	22110
 568.8	22127
 569.3	22087
 569.9	22168
 570.4	22155
 570.9	22109
 571.5	22103
 572.0	22094
 572.5	22153
 573.1	22089
 573.6	22134
 574.1	22129
 574.7	22115
 575.2	22069
 575.8	22109
 576.3	22191
 576.8	22138
 577.4	22140
 577.9	22153
 578.4	22083
 579.0	22087
 579.5	22199
 580.1	22095
 580.6	22090
 581.1	22169
 581.7	22178
 582.2	22095
 582.7	22137
 583.3	22181
 583.8	22139
 584.3	22071
 584.9	22132
 585.4	22125
 586.0	22085
 586.5	22118
 587.0	22062
 587.6	22149
 588.1	22088
 588.6	22165
 589.2	22092
 589.7	22107
 590.2	22089
 590.8	22091
 591.3	22122
 591.9	22059
 592.4	22137
 592.9	22067
 593.5	22060
 594.0	22060
 594.5	22087
 595.1	22079
 595.6	22061
 596.1	22127
 596.7	22101
 597.2	22148
 597.7	22079
 598.3	22099
 598.8	22081
 599.3	22098
 599.9	22081
 600.4	22080
 601.0	22095
 601.5	22086
 602.0	22079
 602.6	22022
 603.1	22037
 603.6	22039
 604.2	22160
 604.7	22039
 605.2	22118
 605.8	22011
 606.3	22039
 606.8	22109
 607.4	22077
 607.9	22111
 608.4	22039
 609.0	22070
 609.5	22113
 610.0	22069
 610.6	22169
 611.1	22064
 611.6	22078
 612.2	22065
 612.7	22132
 613.2	22105
 613.8	22010
 614.3	22025
 614.8	22075
 615.4	21974
 615.9	22058
 616.4	22107
 617.0	22030
 617.5	22130
 618.0	22118
 618.6	22014
 619.1	22029
 619.6	22092
 620.2	22066
 620.7	22110
 621.2	22047
 621.8	22074
 622.3	22086
 622.8	22025
 623.4	22047
 623.9	22099
 624.4	22058
 625.0	22051
 625.5	22052
 626.0	22057
 626.6	22111
 627.1	22106
 627.6	22044
 628.2	22012
 628.7	22044
 629.2	22032
 629.8	22074
 630.3	22086
 630.8	22078
 631.4	22062
 631.9	22107
 632.4	21991
 632.9	22039
 633.5	22045
 634.0	22011
 634.5	22114
 635.1	22047
 635.6	22038
 636.1	22029
 636.7	22105
 637.2	22117
 637.7	22023
 638.3	22138
 638.8	22146
 639.3	22166
 639.8	22117
 640.4	22135
 640.9	22171
 641.4	22073
 642.0	22067
 642.5	22098
 643.0	22071
 643.6	22170
 644.1	22131
 644.6	22136
 645.1	22185
 645.7	22149
 646.2	22110
 646.7	22126
 647.3	22159
 647.8	22159
 648.3	22129
 648.9	22161
 649.4	22055
 649.9	22130
 650.4	22136
 651.0	22171
 651.5	22177
 652.0	22231
 652.6	22157
 653.1	22231
 653.6	22121
 654.1	22201
 654.7	22131
 655.2	22215
 655.7	22238
 656.3	22254
 656.8	22175
 657.3	22227
 657.8	22158
 658.4	22138
 658.9	22139
 659.4	22227
 659.9	22212
 660.5	22172
 661.0	22219
 661.5	22263
 662.1	22216
 662.6	22223
 663.1	22175
 663.6	22262
 664.2	22207
 664.7	22181
 665.2	22087
 665.7	22233
 666.3	22197
 666.8	22208
 667.3	22211
 667.8	22167
 668.4	22205
 668.9	22216
 669.4	22201
 669.9	22241
 670.5	22173
 671.0	22199
 671.5	22151
 672.0	22221
 672.6	22231
 673.1	22263
 673.6	22175
 674.1	22220
 674.7	22211
 675.2	22276
 675.7	22119
 676.2	22137
 676.8	22205
 677.3	22237
 677.8	22154
 678.3	22292
 678.9	22213
 679.4	22164
 679.9	22243
 680.4	22244
 681.0	22216
 681.5	22265
 682.0	22237
 682.5	22270
 683.1	22168
 683.6	22242
 684.1	22174
 684.6	22298
 685.1	22228
 685.7	22259
 686.2	22226
 686.7	22191
 687.2	22171
 687.8	22264
 688.3	22197
 688.8	22233
 689.3	22164
 689.8	22205
 690.4	22199
 690.9	22201
 691.4	22202
 691.9	22237
 692.4	22185
 693.0	22265
 693.5	22233
 694.0	22215
 694.5	22207
 695.1	22175
 695.6	22135
 696.1	22219
 696.6	22197
 697.1	22223
 697.7	22254
 698.2	22171
 698.7	22203
 699.2	22163
 699.7	22174
 700.3	22153
 700.8	22129
 701.3	22259
 701.8	22215
 702.3	22163
 702.8	22169
 703.4	22139
 703.9	22161
 704.4	22169
 704.9	22136
 705.4	22147
 706.0	22261
 706.5	22256
 707.0	22161
 707.5	22162
 708.0	22203
 708.5	22162
 709.1	22245
 709.6	22206
 710.1	22177
 710.6	22158
 711.1	22169
 711.7	22205
 712.2	22206
 712.7	22231
 713.2	22211
 713.7	22219
 714.2	22169
 714.8	22274
 715.3	22216
 715.8	22223
 716.3	22234
 716.8	22143
 717.3	22126
 717.8	22254
 718.4	22268
 718.9	22192
 719.4	22291
 719.9	22185
 720.4	22234
 720.9	22244
 721.4	22236
 722.0	22263
 722.5	22239
 723.0	22216
 723.5	22239
 724.0	22192
 724.5	22177
 725.0	22199
 725.6	22117
 726.1	22171
 726.6	22309
 727.1	22233
 727.6	22277
 728.1	22299
 728.6	22241
 729.1	22226
 729.7	22218
 730.2	22248
 730.7	22275
 731.2	22311
 731.7	22299
 732.2	22302
 732.7	22282
 733.2	22331
 733.8	22307
 734.3	22319
 734.8	22280
 735.3	22298
 735.8	22281
 736.3	22243
 736.8	22279
 737.3	22317
 737.8	22261
 738.4	22245
 738.9	22186
 739.4	22289
 739.9	22269
 740.4	22269
 740.9	22250
 741.4	22247
 741.9	22245
 742.4	22270
 742.9	22247
 743.4	22350
 744.0	22263
 744.5	22259
 745.0	22276
 745.5	22371
 746.0	22343
 746.5	22357
 747.0	22298
 747.5	22288
 748.0	22258
 748.5	22285
 749.0	22307
 749.5	22421
 750.0	22238
 750.5	22314
 751.1	22329
 751.6	22339
 752.1	22343
 752.6	22307
 753.1	22343
 753.6	22279
 754.1	22261
 754.6	22314
 755.1	22279
 755.6	22298
 756.1	22217
 756.6	22341
 757.1	22307
 757.6	22306
 758.1	22289
 758.6	22312
 759.1	22241
 759.6	22299
 760.1	22251
 760.7	22224
 761.2	22319
 761.7	22260
 762.2	22253
 762.7	22327
 763.2	22175
 763.7	22293
 764.2	22221
 764.7	22241
 765.2	22293
 765.7	22268
 766.2	22234
 766.7	22301
 767.2	22261
 767.7	22287
 768.2	22285
 768.7	22249
 769.2	22251
 769.7	22316
 770.2	22292
 770.7	22294
 771.2	22277
 771.7	22267
 772.2	22286
 772.7	22349
 773.2	22329
 773.7	22287
 774.2	22235
 774.7	22298
 775.2	22292
 775.7	22275
 776.2	22275
 776.7	22309
 777.2	22230
 777.7	22329
 778.2	22311
 778.7	22357
 779.2	22375
 779.7	22417
 780.2	22235
 780.7	22321
 781.2	22334
 781.7	22419
 782.2	22324
 782.6	22416
 783.1	22433
 783.6	22391
 784.1	22359
 784.6	22345
 785.1	22360
 785.6	22354
 786.1	22405
 786.6	22422
 787.1	22355
 787.6	22366
 788.1	22369
 788.6	22358
 789.1	22348
 789.6	22403
 790.1	22429
 790.6	22430
 791.1	22322
 791.6	22340
 792.0	22372
 792.5	22424
 793.0	22410
 793.5	22418
 794.0	22352
 794.5	22466
 795.0	22444
 795.5	22427
 796.0	22454
 796.5	22399
 797.0	22435
 797.5	22503
 798.0	22345
 798.4	22405
 798.9	22400
 799.4	22433
 799.9	22451
 800.4	22311
 800.9	22440
 801.4	22526
 801.9	22501
 802.4	22423
 802.9	22511
 803.3	22527
 803.8	22499
 804.3	22447
 804.8	22533
 805.3	22493
 805.8	22493
 806.3	22505
 806.8	22499
 807.2	22504
 807.7	22493
 808.2	22537
 808.7	22459
 809.2	22479
 809.7	22420
 810.2	22502
 810.7	22444
 811.1	22479
 811.6	22501
 812.1	22459
 812.6	22422
 813.1	22489
 813.6	22513
 814.1	22501
 814.5	22467
 815.0	22503
 815.5	22471
 816.0	22431
 816.5	22515
 817.0	22470
 817.4	22458
 817.9	22506
 818.4	22436
 818.9	22547
 819.4	22501
 819.9	22484
 820.3	22455
 820.8	22467
 821.3	22478
 821.8	22493
 822.3	22446
 822.7	22433
 823.2	22508
 823.7	22457
 824.2	22472
 824.7	22453
 825.2	22489
 825.6	22465
 826.1	22458
 826.6	22523
 827.1	22512
 827.6	22509
 828.0	22449
 828.5	22419
 829.0	22476
 829.5	22414
 829.9	22427
 830.4	22501
 830.9	22485
 831.4	22521
 831.9	22470
 832.3	22559
 832.8	22503
 833.3	22507
 833.8	22599
 834.2	22597
 834.7	22424
 835.2	22531
 835.7	22531
 836.1	22537
 836.6	22521
 837.1	22529
 837.6	22539
 838.0	22588
 838.5	22611
 839.0	22617
 839.5	22614
 839.9	22529
 840.4	22541
 840.9	22508
 841.4	22554
 841.8	22584
 842.3	22605
 842.8	22627
 843.3	22626
 843.7	22519
 844.2	22509
 844.7	22609
 845.1	22585
 845.6	22495
 846.1	22531
 846.6	22562
 847.0	22455
 847.5	22517
 848.0	22502
 848.4	22553
 848.9	22510
 849.4	22506
 849.8	22536
 850.3	22537
 850.8	22596
 851.3	22559
 851.7	22553
 852.2	22561
 852.7	22555
 853.1	22546
 853.6	22489
 854.1	22545
 854.5	22506
 855.0	22503
 855.5	22495
 855.9	22571
 856.4	22556
 856.9	22471
 857.3	22544
 857.8	22516
 858.3	22570
 858.7	22518
 859.2	22557
 859.7	22543
 860.1	22608
 860.6	22585
 861.1	22530
 861.5	22582
 862.0	22596
 862.4	22575
 862.9	22533
 863.4	22580
 863.8	22587
 864.3	22598
 864.8	22514
 865.2	22567
 865.7	22592
 866.1	22619
 866.6	22529
 867.1	22627
 867.5	22610
 868.0	22597
 868.5	22550
 868.9	22553
 869.4	22676
 869.8	22634
 870.3	22587
 870.8	22669
 871.2	22627
 871.7	22629
 872.1	22582
 872.6	22635
 873.0	22613
 873.5	22699
 874.0	22685
 874.4	22544
 874.9	22562
 875.3	22502
 875.8	22386
 876.2	22145
 876.7	21986
 877.2	21636
 877.6	21253
 878.1	20921
