#xlabel Wavelength (nm)
#ylabel Spectrometer Array Counts
#title Exposure time is 12000 ms
## lambda	counts
 349.8	20607
 350.3	20885
 350.8	21158
 351.3	21389
 351.9	21535
 352.4	21675
 352.9	21766
 353.4	21742
 354.0	21749
 354.5	21817
 355.0	21812
 355.5	21834
 356.0	21788
 356.6	21740
 357.1	21789
 357.6	21757
 358.1	21799
 358.7	21727
 359.2	21741
 359.7	21761
 360.2	21797
 360.8	21757
 361.3	21855
 361.8	21789
 362.3	21819
 362.9	21774
 363.4	21847
 363.9	21848
 364.4	21877
 364.9	21771
 365.5	21852
 366.0	21828
 366.5	21772
 367.0	21825
 367.6	21844
 368.1	21846
 368.6	21775
 369.1	21826
 369.7	21880
 370.2	21783
 370.7	21785
 371.2	21833
 371.8	21889
 372.3	21795
 372.8	21876
 373.3	21887
 373.9	21819
 374.4	21837
 374.9	21884
 375.5	21758
 376.0	21891
 376.5	21838
 377.0	21871
 377.6	21805
 378.1	21886
 378.6	21797
 379.1	21806
 379.7	21781
 380.2	21858
 380.7	21850
 381.2	21799
 381.8	21785
 382.3	21821
 382.8	21791
 383.4	21845
 383.9	21783
 384.4	21952
 384.9	21842
 385.5	21853
 386.0	21857
 386.5	21927
 387.1	21851
 387.6	21865
 388.1	21855
 388.6	21872
 389.2	21851
 389.7	21872
 390.2	21840
 390.8	21935
 391.3	21889
 391.8	21871
 392.3	21842
 392.9	21826
 393.4	21813
 393.9	21881
 394.5	21879
 395.0	21805
 395.5	21828
 396.0	21820
 396.6	21770
 397.1	21871
 397.6	21865
 398.2	21855
 398.7	21843
 399.2	21957
 399.8	21810
 400.3	21874
 400.8	21918
 401.3	21882
 401.9	21889
 402.4	21912
 402.9	21892
 403.5	21918
 404.0	21885
 404.5	21826
 405.1	21827
 405.6	21919
 406.1	21878
 406.7	21877
 407.2	21875
 407.7	21951
 408.2	21931
 408.8	21926
 409.3	21946
 409.8	21979
 410.4	21934
 410.9	21924
 411.4	21857
 412.0	21922
 412.5	21968
 413.0	21909
 413.6	21942
 414.1	21893
 414.6	21907
 415.2	21957
 415.7	21884
 416.2	21922
 416.8	21897
 417.3	21866
 417.8	21881
 418.4	21978
 418.9	21895
 419.4	22041
 420.0	21895
 420.5	21967
 421.0	21886
 421.5	21977
 422.1	21940
 422.6	21993
 423.1	22015
 423.7	21967
 424.2	21941
 424.7	21975
 425.3	21945
 425.8	21960
 426.3	21934
 426.9	21999
 427.4	21919
 427.9	22045
 428.5	21963
 429.0	21995
 429.6	21939
 430.1	22019
 430.6	21997
 431.2	21910
 431.7	22014
 432.2	21958
 432.8	21917
 433.3	22026
 433.8	22011
 434.4	21961
 434.9	21955
 435.4	22003
 436.0	21963
 436.5	21949
 437.0	22015
 437.6	21969
 438.1	22027
 438.6	22031
 439.2	22049
 439.7	22032
 440.2	21965
 440.8	21995
 441.3	22002
 441.8	21993
 442.4	21954
 442.9	21988
 443.5	22033
 444.0	22015
 444.5	22045
 445.1	21935
 445.6	21970
 446.1	21989
 446.7	21995
 447.2	22010
 447.7	21980
 448.3	22044
 448.8	21986
 449.3	22007
 449.9	21927
 450.4	22035
 450.9	22053
 451.5	22036
 452.0	21983
 452.6	21983
 453.1	22035
 453.6	22026
 454.2	21878
 454.7	21943
 455.2	21957
 455.8	22000
 456.3	21923
 456.8	22051
 457.4	21954
 457.9	21953
 458.5	22005
 459.0	21951
 459.5	21999
 460.1	21939
 460.6	21988
 461.1	21971
 461.7	22018
 462.2	21976
 462.7	22011
 463.3	21925
 463.8	22000
 464.4	22075
 464.9	22003
 465.4	22069
 466.0	21948
 466.5	22030
 467.0	21943
 467.6	22008
 468.1	22098
 468.7	22011
 469.2	21914
 469.7	22017
 470.3	21976
 470.8	22010
 471.3	21974
 471.9	21912
 472.4	21961
 473.0	21996
 473.5	22012
 474.0	21982
 474.6	21975
 475.1	21963
 475.6	22032
 476.2	22033
 476.7	21997
 477.3	22048
 477.8	21977
 478.3	21886
 478.9	22111
 479.4	21973
 479.9	21973
 480.5	21948
 481.0	21965
 481.6	21979
 482.1	22038
 482.6	22000
 483.2	21994
 483.7	22114
 484.2	22034
 484.8	21838
 485.3	21935
 485.9	22009
 486.4	21957
 486.9	21973
 487.5	21911
 488.0	21913
 488.6	21975
 489.1	21976
 489.6	22031
 490.2	22013
 490.7	21961
 491.2	21922
 491.8	21981
 492.3	21918
 492.9	21976
 493.4	21978
 493.9	21997
 494.5	21997
 495.0	22075
 495.6	21979
 496.1	21996
 496.6	22058
 497.2	21965
 497.7	21925
 498.2	22030
 498.8	22055
 499.3	21953
 499.9	22017
 500.4	22009
 500.9	21990
 501.5	21968
 502.0	22037
 502.6	21998
 503.1	22084
 503.6	22031
 504.2	21970
 504.7	21959
 505.2	22011
 505.8	21981
 506.3	22057
 506.9	22050
 507.4	21985
 507.9	21933
 508.5	21957
 509.0	21986
 509.6	22035
 510.1	21985
 510.6	22007
 511.2	22017
 511.7	21973
 512.2	22035
 512.8	22043
 513.3	21989
 513.9	21955
 514.4	22017
 514.9	22100
 515.5	21977
 516.0	22060
 516.6	22019
 517.1	22079
 517.6	22066
 518.2	22041
 518.7	21973
 519.3	22049
 519.8	22097
 520.3	22095
 520.9	22045
 521.4	22063
 521.9	22139
 522.5	22052
 523.0	22091
 523.6	22139
 524.1	21971
 524.6	22031
 525.2	22061
 525.7	22092
 526.3	22001
 526.8	22092
 527.3	22031
 527.9	22059
 528.4	22023
 528.9	22075
 529.5	22083
 530.0	22057
 530.6	22097
 531.1	22078
 531.6	21971
 532.2	22089
 532.7	22027
 533.3	22049
 533.8	22172
 534.3	22192
 534.9	22163
 535.4	22075
 536.0	22145
 536.5	22165
 537.0	22101
 537.6	22121
 538.1	22159
 538.6	22171
 539.2	22085
 539.7	22095
 540.3	22197
 540.8	22140
 541.3	22087
 541.9	22116
 542.4	22108
 543.0	22181
 543.5	22134
 544.0	22101
 544.6	22155
 545.1	22164
 545.6	22204
 546.2	22191
 546.7	22083
 547.3	22155
 547.8	22132
 548.3	22191
 548.9	22093
 549.4	22101
 550.0	22064
 550.5	22145
 551.0	22194
 551.6	22129
 552.1	22159
 552.6	22158
 553.2	22127
 553.7	22098
 554.3	22148
 554.8	22222
 555.3	22048
 555.9	22118
 556.4	22075
 556.9	22180
 557.5	22205
 558.0	22141
 558.6	22108
 559.1	22189
 559.6	22164
 560.2	22148
 560.7	22149
 561.3	22103
 561.8	22067
 562.3	22195
 562.9	22168
 563.4	22191
 563.9	22178
 564.5	22181
 565.0	22155
 565.6	22178
 566.1	22167
 566.6	22168
 567.2	22150
 567.7	22266
 568.2	22153
 568.8	22171
 569.3	22134
 569.9	22213
 570.4	22193
 570.9	22155
 571.5	22149
 572.0	22140
 572.5	22193
 573.1	22131
 573.6	22185
 574.1	22163
 574.7	22154
 575.2	22115
 575.8	22152
 576.3	22230
 576.8	22179
 577.4	22181
 577.9	22199
 578.4	22131
 579.0	22129
 579.5	22243
 580.1	22137
 580.6	22135
 581.1	22215
 581.7	22225
 582.2	22137
 582.7	22180
 583.3	22223
 583.8	22181
 584.3	22109
 584.9	22175
 585.4	22170
 586.0	22135
 586.5	22159
 587.0	22108
 587.6	22187
 588.1	22121
 588.6	22206
 589.2	22136
 589.7	22149
 590.2	22136
 590.8	22135
 591.3	22163
 591.9	22102
 592.4	22181
 592.9	22112
 593.5	22103
 594.0	22107
 594.5	22131
 595.1	22122
 595.6	22097
 596.1	22168
 596.7	22141
 597.2	22192
 597.7	22124
 598.3	22141
 598.8	22117
 599.3	22139
 599.9	22121
 600.4	22123
 601.0	22135
 601.5	22129
 602.0	22122
 602.6	22061
 603.1	22079
 603.6	22081
 604.2	22200
 604.7	22082
 605.2	22157
 605.8	22059
 606.3	22070
 606.8	22149
 607.4	22118
 607.9	22153
 608.4	22081
 609.0	22109
 609.5	22153
 610.0	22115
 610.6	22210
 611.1	22105
 611.6	22119
 612.2	22106
 612.7	22166
 613.2	22151
 613.8	22051
 614.3	22069
 614.8	22115
 615.4	22017
 615.9	22099
 616.4	22149
 617.0	22073
 617.5	22167
 618.0	22163
 618.6	22056
 619.1	22068
 619.6	22135
 620.2	22104
 620.7	22156
 621.2	22091
 621.8	22117
 622.3	22134
 622.8	22069
 623.4	22093
 623.9	22141
 624.4	22105
 625.0	22098
 625.5	22093
 626.0	22105
 626.6	22154
 627.1	22149
 627.6	22090
 628.2	22058
 628.7	22090
 629.2	22075
 629.8	22116
 630.3	22131
 630.8	22119
 631.4	22105
 631.9	22149
 632.4	22041
 632.9	22076
 633.5	22087
 634.0	22052
 634.5	22154
 635.1	22093
 635.6	22083
 636.1	22077
 636.7	22149
 637.2	22156
 637.7	22061
 638.3	22182
 638.8	22185
 639.3	22211
 639.8	22160
 640.4	22181
 640.9	22211
 641.4	22117
 642.0	22113
 642.5	22142
 643.0	22109
 643.6	22211
 644.1	22159
 644.6	22174
 645.1	22228
 645.7	22193
 646.2	22153
 646.7	22167
 647.3	22202
 647.8	22205
 648.3	22177
 648.9	22204
 649.4	22101
 649.9	22174
 650.4	22176
 651.0	22215
 651.5	22224
 652.0	22275
 652.6	22194
 653.1	22274
 653.6	22163
 654.1	22241
 654.7	22176
 655.2	22258
 655.7	22292
 656.3	22298
 656.8	22217
 657.3	22269
 657.8	22203
 658.4	22186
 658.9	22186
 659.4	22273
 659.9	22257
 660.5	22220
 661.0	22265
 661.5	22312
 662.1	22259
 662.6	22270
 663.1	22222
 663.6	22309
 664.2	22258
 664.7	22227
 665.2	22135
 665.7	22283
 666.3	22238
 666.8	22256
 667.3	22258
 667.8	22207
 668.4	22251
 668.9	22262
 669.4	22248
 669.9	22289
 670.5	22221
 671.0	22245
 671.5	22191
 672.0	22269
 672.6	22277
 673.1	22311
 673.6	22218
 674.1	22261
 674.7	22255
 675.2	22323
 675.7	22163
 676.2	22179
 676.8	22251
 677.3	22277
 677.8	22199
 678.3	22335
 678.9	22261
 679.4	22211
 679.9	22285
 680.4	22291
 681.0	22255
 681.5	22308
 682.0	22285
 682.5	22317
 683.1	22222
 683.6	22290
 684.1	22220
 684.6	22341
 685.1	22274
 685.7	22302
 686.2	22273
 686.7	22236
 687.2	22218
 687.8	22307
 688.3	22244
 688.8	22270
 689.3	22209
 689.8	22248
 690.4	22241
 690.9	22246
 691.4	22245
 691.9	22283
 692.4	22229
 693.0	22310
 693.5	22272
 694.0	22257
 694.5	22253
 695.1	22222
 695.6	22181
 696.1	22259
 696.6	22245
 697.1	22259
 697.7	22295
 698.2	22215
 698.7	22242
 699.2	22209
 699.7	22219
 700.3	22203
 700.8	22177
 701.3	22305
 701.8	22259
 702.3	22208
 702.8	22217
 703.4	22178
 703.9	22207
 704.4	22213
 704.9	22184
 705.4	22187
 706.0	22303
 706.5	22302
 707.0	22207
 707.5	22205
 708.0	22241
 708.5	22203
 709.1	22289
 709.6	22254
 710.1	22227
 710.6	22201
 711.1	22213
 711.7	22250
 712.2	22251
 712.7	22275
 713.2	22251
 713.7	22271
 714.2	22213
 714.8	22318
 715.3	22263
 715.8	22273
 716.3	22277
 716.8	22179
 717.3	22165
 717.8	22297
 718.4	22311
 718.9	22234
 719.4	22333
 719.9	22225
 720.4	22278
 720.9	22283
 721.4	22281
 722.0	22300
 722.5	22280
 723.0	22261
 723.5	22281
 724.0	22233
 724.5	22225
 725.0	22241
 725.6	22163
 726.1	22217
 726.6	22343
 727.1	22277
 727.6	22318
 728.1	22339
 728.6	22278
 729.1	22273
 729.7	22257
 730.2	22287
 730.7	22317
 731.2	22356
 731.7	22341
 732.2	22346
 732.7	22320
 733.2	22373
 733.8	22352
 734.3	22361
 734.8	22325
 735.3	22344
 735.8	22325
 736.3	22285
 736.8	22319
 737.3	22369
 737.8	22300
 738.4	22287
 738.9	22232
 739.4	22331
 739.9	22316
 740.4	22311
 740.9	22297
 741.4	22296
 741.9	22289
 742.4	22310
 742.9	22289
 743.4	22398
 744.0	22306
 744.5	22303
 745.0	22323
 745.5	22423
 746.0	22393
 746.5	22402
 747.0	22340
 747.5	22334
 748.0	22308
 748.5	22331
 749.0	22351
 749.5	22462
 750.0	22281
 750.5	22357
 751.1	22375
 751.6	22387
 752.1	22386
 752.6	22348
 753.1	22389
 753.6	22324
 754.1	22301
 754.6	22359
 755.1	22322
 755.6	22344
 756.1	22255
 756.6	22383
 757.1	22352
 757.6	22349
 758.1	22323
 758.6	22355
 759.1	22288
 759.6	22346
 760.1	22298
 760.7	22262
 761.2	22365
 761.7	22305
 762.2	22297
 762.7	22371
 763.2	22216
 763.7	22335
 764.2	22270
 764.7	22286
 765.2	22336
 765.7	22313
 766.2	22276
 766.7	22348
 767.2	22295
 767.7	22333
 768.2	22319
 768.7	22293
 769.2	22291
 769.7	22353
 770.2	22331
 770.7	22332
 771.2	22321
 771.7	22309
 772.2	22329
 772.7	22389
 773.2	22366
 773.7	22335
 774.2	22277
 774.7	22341
 775.2	22336
 775.7	22315
 776.2	22317
 776.7	22353
 777.2	22271
 777.7	22367
 778.2	22350
 778.7	22398
 779.2	22414
 779.7	22455
 780.2	22274
 780.7	22363
 781.2	22375
 781.7	22461
 782.2	22370
 782.6	22455
 783.1	22475
 783.6	22431
 784.1	22401
 784.6	22385
 785.1	22399
 785.6	22398
 786.1	22443
 786.6	22466
 787.1	22401
 787.6	22404
 788.1	22405
 788.6	22395
 789.1	22392
 789.6	22441
 790.1	22471
 790.6	22472
 791.1	22363
 791.6	22382
 792.0	22418
 792.5	22470
 793.0	22450
 793.5	22459
 794.0	22398
 794.5	22513
 795.0	22488
 795.5	22472
 796.0	22493
 796.5	22433
 797.0	22481
 797.5	22542
 798.0	22383
 798.4	22443
 798.9	22441
 799.4	22475
 799.9	22499
 800.4	22353
 800.9	22478
 801.4	22564
 801.9	22539
 802.4	22466
 802.9	22558
 803.3	22563
 803.8	22541
 804.3	22486
 804.8	22575
 805.3	22535
 805.8	22537
 806.3	22545
 806.8	22539
 807.2	22546
 807.7	22538
 808.2	22575
 808.7	22495
 809.2	22519
 809.7	22460
 810.2	22551
 810.7	22482
 811.1	22521
 811.6	22547
 812.1	22501
 812.6	22462
 813.1	22526
 813.6	22559
 814.1	22542
 814.5	22506
 815.0	22551
 815.5	22510
 816.0	22476
 816.5	22554
 817.0	22510
 817.4	22501
 817.9	22544
 818.4	22478
 818.9	22584
 819.4	22538
 819.9	22518
 820.3	22497
 820.8	22509
 821.3	22525
 821.8	22533
 822.3	22487
 822.7	22474
 823.2	22552
 823.7	22501
 824.2	22514
 824.7	22491
 825.2	22523
 825.6	22505
 826.1	22495
 826.6	22565
 827.1	22553
 827.6	22549
 828.0	22485
 828.5	22463
 829.0	22514
 829.5	22451
 829.9	22469
 830.4	22539
 830.9	22523
 831.4	22560
 831.9	22511
 832.3	22602
 832.8	22548
 833.3	22548
 833.8	22645
 834.2	22637
 834.7	22463
 835.2	22573
 835.7	22575
 836.1	22581
 836.6	22563
 837.1	22571
 837.6	22585
 838.0	22619
 838.5	22658
 839.0	22656
 839.5	22650
 839.9	22571
 840.4	22584
 840.9	22548
 841.4	22595
 841.8	22623
 842.3	22645
 842.8	22666
 843.3	22664
 843.7	22559
 844.2	22557
 844.7	22652
 845.1	22626
 845.6	22536
 846.1	22563
 846.6	22605
 847.0	22493
 847.5	22559
 848.0	22541
 848.4	22588
 848.9	22551
 849.4	22547
 849.8	22581
 850.3	22583
 850.8	22633
 851.3	22596
 851.7	22596
 852.2	22602
 852.7	22603
 853.1	22588
 853.6	22533
 854.1	22583
 854.5	22549
 855.0	22544
 855.5	22539
 855.9	22609
 856.4	22601
 856.9	22513
 857.3	22587
 857.8	22559
 858.3	22611
 858.7	22568
 859.2	22602
 859.7	22589
 860.1	22655
 860.6	22629
 861.1	22569
 861.5	22628
 862.0	22633
 862.4	22617
 862.9	22580
 863.4	22623
 863.8	22638
 864.3	22642
 864.8	22560
 865.2	22619
 865.7	22643
 866.1	22672
 866.6	22585
 867.1	22671
 867.5	22664
 868.0	22647
 868.5	22593
 868.9	22602
 869.4	22719
 869.8	22671
 870.3	22632
 870.8	22712
 871.2	22658
 871.7	22662
 872.1	22616
 872.6	22671
 873.0	22651
 873.5	22757
 874.0	22747
 874.4	22625
 874.9	22667
 875.3	22621
 875.8	22517
 876.2	22279
 876.7	22108
 877.2	21746
 877.6	21327
 878.1	20947
