#xlabel Wavelength (nm)
#ylabel Spectrometer Array Counts
#title Exposure time is 12000 ms
## lambda	counts
 349.8	20615
 350.3	20900
 350.8	21181
 351.3	21418
 351.9	21556
 352.4	21700
 352.9	21787
 353.4	21751
 354.0	21755
 354.5	21815
 355.0	21811
 355.5	21827
 356.0	21779
 356.6	21733
 357.1	21779
 357.6	21747
 358.1	21779
 358.7	21711
 359.2	21732
 359.7	21739
 360.2	21786
 360.8	21743
 361.3	21843
 361.8	21777
 362.3	21805
 362.9	21756
 363.4	21838
 363.9	21834
 364.4	21865
 364.9	21759
 365.5	21843
 366.0	21815
 366.5	21762
 367.0	21810
 367.6	21841
 368.1	21837
 368.6	21761
 369.1	21815
 369.7	21875
 370.2	21779
 370.7	21779
 371.2	21823
 371.8	21877
 372.3	21787
 372.8	21867
 373.3	21879
 373.9	21810
 374.4	21828
 374.9	21876
 375.5	21749
 376.0	21887
 376.5	21830
 377.0	21863
 377.6	21795
 378.1	21876
 378.6	21794
 379.1	21799
 379.7	21775
 380.2	21849
 380.7	21847
 381.2	21793
 381.8	21775
 382.3	21810
 382.8	21789
 383.4	21837
 383.9	21772
 384.4	21941
 384.9	21829
 385.5	21844
 386.0	21847
 386.5	21922
 387.1	21841
 387.6	21858
 388.1	21845
 388.6	21862
 389.2	21841
 389.7	21866
 390.2	21833
 390.8	21929
 391.3	21883
 391.8	21865
 392.3	21837
 392.9	21815
 393.4	21807
 393.9	21873
 394.5	21867
 395.0	21795
 395.5	21821
 396.0	21813
 396.6	21761
 397.1	21859
 397.6	21858
 398.2	21848
 398.7	21841
 399.2	21953
 399.8	21804
 400.3	21867
 400.8	21916
 401.3	21878
 401.9	21891
 402.4	21912
 402.9	21883
 403.5	21907
 404.0	21883
 404.5	21818
 405.1	21821
 405.6	21919
 406.1	21870
 406.7	21871
 407.2	21865
 407.7	21943
 408.2	21922
 408.8	21919
 409.3	21939
 409.8	21975
 410.4	21928
 410.9	21926
 411.4	21850
 412.0	21923
 412.5	21961
 413.0	21897
 413.6	21940
 414.1	21889
 414.6	21908
 415.2	21949
 415.7	21875
 416.2	21917
 416.8	21893
 417.3	21866
 417.8	21877
 418.4	21972
 418.9	21889
 419.4	22042
 420.0	21892
 420.5	21966
 421.0	21883
 421.5	21968
 422.1	21932
 422.6	21990
 423.1	22008
 423.7	21967
 424.2	21940
 424.7	21966
 425.3	21943
 425.8	21953
 426.3	21933
 426.9	21994
 427.4	21912
 427.9	22041
 428.5	21957
 429.0	21989
 429.6	21935
 430.1	22011
 430.6	21993
 431.2	21906
 431.7	22008
 432.2	21952
 432.8	21913
 433.3	22022
 433.8	22008
 434.4	21953
 434.9	21954
 435.4	21999
 436.0	21955
 436.5	21939
 437.0	22011
 437.6	21964
 438.1	22021
 438.6	22020
 439.2	22041
 439.7	22029
 440.2	21961
 440.8	21994
 441.3	21998
 441.8	21987
 442.4	21949
 442.9	21977
 443.5	22027
 444.0	22013
 444.5	22033
 445.1	21935
 445.6	21959
 446.1	21981
 446.7	21992
 447.2	22009
 447.7	21972
 448.3	22041
 448.8	21983
 449.3	22001
 449.9	21927
 450.4	22028
 450.9	22049
 451.5	22033
 452.0	21979
 452.6	21974
 453.1	22028
 453.6	22021
 454.2	21869
 454.7	21939
 455.2	21950
 455.8	21991
 456.3	21916
 456.8	22045
 457.4	21950
 457.9	21951
 458.5	22003
 459.0	21947
 459.5	21989
 460.1	21932
 460.6	21982
 461.1	21967
 461.7	22010
 462.2	21969
 462.7	22006
 463.3	21919
 463.8	21997
 464.4	22069
 464.9	21995
 465.4	22070
 466.0	21946
 466.5	22021
 467.0	21934
 467.6	21992
 468.1	22095
 468.7	22003
 469.2	21907
 469.7	22007
 470.3	21965
 470.8	22006
 471.3	21967
 471.9	21907
 472.4	21954
 473.0	21994
 473.5	21995
 474.0	21975
 474.6	21967
 475.1	21959
 475.6	22030
 476.2	22026
 476.7	21994
 477.3	22044
 477.8	21971
 478.3	21875
 478.9	22103
 479.4	21965
 479.9	21971
 480.5	21940
 481.0	21959
 481.6	21972
 482.1	22030
 482.6	21991
 483.2	21991
 483.7	22107
 484.2	22029
 484.8	21833
 485.3	21931
 485.9	22009
 486.4	21958
 486.9	21968
 487.5	21910
 488.0	21909
 488.6	21965
 489.1	21973
 489.6	22024
 490.2	22009
 490.7	21953
 491.2	21915
 491.8	21968
 492.3	21912
 492.9	21970
 493.4	21975
 493.9	21997
 494.5	21988
 495.0	22065
 495.6	21975
 496.1	21993
 496.6	22055
 497.2	21959
 497.7	21922
 498.2	22022
 498.8	22050
 499.3	21947
 499.9	22013
 500.4	22003
 500.9	21983
 501.5	21957
 502.0	22032
 502.6	21988
 503.1	22085
 503.6	22030
 504.2	21964
 504.7	21955
 505.2	22004
 505.8	21981
 506.3	22054
 506.9	22041
 507.4	21973
 507.9	21930
 508.5	21953
 509.0	21978
 509.6	22029
 510.1	21983
 510.6	21998
 511.2	22007
 511.7	21967
 512.2	22034
 512.8	22040
 513.3	21980
 513.9	21946
 514.4	22016
 514.9	22093
 515.5	21967
 516.0	22050
 516.6	22015
 517.1	22078
 517.6	22055
 518.2	22033
 518.7	21964
 519.3	22040
 519.8	22093
 520.3	22089
 520.9	22043
 521.4	22056
 521.9	22138
 522.5	22051
 523.0	22088
 523.6	22130
 524.1	21965
 524.6	22023
 525.2	22047
 525.7	22089
 526.3	21995
 526.8	22090
 527.3	22026
 527.9	22046
 528.4	22011
 528.9	22068
 529.5	22078
 530.0	22049
 530.6	22089
 531.1	22073
 531.6	21965
 532.2	22079
 532.7	22018
 533.3	22041
 533.8	22159
 534.3	22181
 534.9	22153
 535.4	22067
 536.0	22135
 536.5	22159
 537.0	22096
 537.6	22118
 538.1	22153
 538.6	22162
 539.2	22079
 539.7	22081
 540.3	22193
 540.8	22136
 541.3	22079
 541.9	22109
 542.4	22102
 543.0	22170
 543.5	22123
 544.0	22094
 544.6	22148
 545.1	22154
 545.6	22199
 546.2	22174
 546.7	22077
 547.3	22148
 547.8	22123
 548.3	22181
 548.9	22085
 549.4	22091
 550.0	22059
 550.5	22132
 551.0	22191
 551.6	22131
 552.1	22152
 552.6	22154
 553.2	22117
 553.7	22092
 554.3	22138
 554.8	22215
 555.3	22043
 555.9	22114
 556.4	22064
 556.9	22171
 557.5	22203
 558.0	22140
 558.6	22108
 559.1	22181
 559.6	22149
 560.2	22141
 560.7	22139
 561.3	22096
 561.8	22060
 562.3	22185
 562.9	22161
 563.4	22189
 563.9	22169
 564.5	22173
 565.0	22147
 565.6	22167
 566.1	22161
 566.6	22162
 567.2	22147
 567.7	22263
 568.2	22150
 568.8	22170
 569.3	22123
 569.9	22206
 570.4	22186
 570.9	22152
 571.5	22141
 572.0	22130
 572.5	22187
 573.1	22124
 573.6	22175
 574.1	22165
 574.7	22147
 575.2	22111
 575.8	22145
 576.3	22225
 576.8	22168
 577.4	22171
 577.9	22191
 578.4	22122
 579.0	22123
 579.5	22234
 580.1	22137
 580.6	22133
 581.1	22203
 581.7	22221
 582.2	22132
 582.7	22173
 583.3	22217
 583.8	22169
 584.3	22105
 584.9	22165
 585.4	22155
 586.0	22116
 586.5	22150
 587.0	22091
 587.6	22179
 588.1	22121
 588.6	22192
 589.2	22132
 589.7	22142
 590.2	22127
 590.8	22125
 591.3	22155
 591.9	22097
 592.4	22175
 592.9	22098
 593.5	22094
 594.0	22098
 594.5	22123
 595.1	22111
 595.6	22093
 596.1	22161
 596.7	22135
 597.2	22188
 597.7	22118
 598.3	22135
 598.8	22110
 599.3	22133
 599.9	22112
 600.4	22115
 601.0	22131
 601.5	22123
 602.0	22110
 602.6	22057
 603.1	22074
 603.6	22078
 604.2	22193
 604.7	22077
 605.2	22155
 605.8	22045
 606.3	22073
 606.8	22143
 607.4	22111
 607.9	22151
 608.4	22077
 609.0	22103
 609.5	22152
 610.0	22111
 610.6	22203
 611.1	22095
 611.6	22111
 612.2	22098
 612.7	22161
 613.2	22134
 613.8	22039
 614.3	22055
 614.8	22112
 615.4	22007
 615.9	22095
 616.4	22137
 617.0	22069
 617.5	22159
 618.0	22156
 618.6	22045
 619.1	22064
 619.6	22131
 620.2	22106
 620.7	22147
 621.2	22080
 621.8	22105
 622.3	22125
 622.8	22059
 623.4	22083
 623.9	22133
 624.4	22097
 625.0	22092
 625.5	22087
 626.0	22093
 626.6	22145
 627.1	22140
 627.6	22082
 628.2	22049
 628.7	22081
 629.2	22066
 629.8	22105
 630.3	22121
 630.8	22111
 631.4	22101
 631.9	22141
 632.4	22032
 632.9	22071
 633.5	22081
 634.0	22047
 634.5	22154
 635.1	22084
 635.6	22071
 636.1	22067
 636.7	22146
 637.2	22154
 637.7	22054
 638.3	22175
 638.8	22179
 639.3	22205
 639.8	22152
 640.4	22175
 640.9	22209
 641.4	22105
 642.0	22108
 642.5	22139
 643.0	22106
 643.6	22202
 644.1	22165
 644.6	22170
 645.1	22222
 645.7	22188
 646.2	22149
 646.7	22163
 647.3	22197
 647.8	22201
 648.3	22167
 648.9	22194
 649.4	22092
 649.9	22167
 650.4	22174
 651.0	22207
 651.5	22213
 652.0	22264
 652.6	22195
 653.1	22267
 653.6	22155
 654.1	22239
 654.7	22174
 655.2	22246
 655.7	22277
 656.3	22290
 656.8	22213
 657.3	22261
 657.8	22198
 658.4	22179
 658.9	22177
 659.4	22258
 659.9	22246
 660.5	22204
 661.0	22258
 661.5	22303
 662.1	22248
 662.6	22256
 663.1	22213
 663.6	22294
 664.2	22245
 664.7	22211
 665.2	22120
 665.7	22270
 666.3	22231
 666.8	22244
 667.3	22251
 667.8	22199
 668.4	22236
 668.9	22251
 669.4	22241
 669.9	22279
 670.5	22214
 671.0	22231
 671.5	22183
 672.0	22262
 672.6	22272
 673.1	22307
 673.6	22213
 674.1	22253
 674.7	22248
 675.2	22314
 675.7	22152
 676.2	22167
 676.8	22241
 677.3	22267
 677.8	22187
 678.3	22326
 678.9	22252
 679.4	22198
 679.9	22273
 680.4	22285
 681.0	22248
 681.5	22297
 682.0	22271
 682.5	22307
 683.1	22207
 683.6	22274
 684.1	22213
 684.6	22335
 685.1	22267
 685.7	22295
 686.2	22270
 686.7	22229
 687.2	22210
 687.8	22306
 688.3	22234
 688.8	22267
 689.3	22201
 689.8	22241
 690.4	22233
 690.9	22241
 691.4	22233
 691.9	22273
 692.4	22219
 693.0	22303
 693.5	22273
 694.0	22247
 694.5	22240
 695.1	22219
 695.6	22174
 696.1	22252
 696.6	22240
 697.1	22258
 697.7	22288
 698.2	22211
 698.7	22239
 699.2	22203
 699.7	22211
 700.3	22188
 700.8	22164
 701.3	22302
 701.8	22255
 702.3	22194
 702.8	22211
 703.4	22175
 703.9	22204
 704.4	22205
 704.9	22180
 705.4	22181
 706.0	22295
 706.5	22295
 707.0	22202
 707.5	22196
 708.0	22240
 708.5	22195
 709.1	22279
 709.6	22242
 710.1	22215
 710.6	22199
 711.1	22205
 711.7	22238
 712.2	22246
 712.7	22261
 713.2	22245
 713.7	22259
 714.2	22204
 714.8	22310
 715.3	22253
 715.8	22263
 716.3	22273
 716.8	22174
 717.3	22160
 717.8	22294
 718.4	22302
 718.9	22227
 719.4	22325
 719.9	22223
 720.4	22267
 720.9	22277
 721.4	22268
 722.0	22294
 722.5	22275
 723.0	22254
 723.5	22271
 724.0	22221
 724.5	22214
 725.0	22235
 725.6	22155
 726.1	22206
 726.6	22339
 727.1	22270
 727.6	22313
 728.1	22333
 728.6	22275
 729.1	22263
 729.7	22247
 730.2	22277
 730.7	22313
 731.2	22346
 731.7	22338
 732.2	22337
 732.7	22313
 733.2	22364
 733.8	22337
 734.3	22348
 734.8	22315
 735.3	22327
 735.8	22319
 736.3	22277
 736.8	22316
 737.3	22354
 737.8	22287
 738.4	22276
 738.9	22221
 739.4	22325
 739.9	22307
 740.4	22303
 740.9	22281
 741.4	22284
 741.9	22279
 742.4	22298
 742.9	22280
 743.4	22391
 744.0	22299
 744.5	22293
 745.0	22314
 745.5	22415
 746.0	22383
 746.5	22391
 747.0	22334
 747.5	22324
 748.0	22295
 748.5	22318
 749.0	22339
 749.5	22453
 750.0	22269
 750.5	22350
 751.1	22365
 751.6	22375
 752.1	22377
 752.6	22335
 753.1	22379
 753.6	22317
 754.1	22295
 754.6	22359
 755.1	22311
 755.6	22335
 756.1	22248
 756.6	22380
 757.1	22349
 757.6	22342
 758.1	22317
 758.6	22345
 759.1	22278
 759.6	22331
 760.1	22289
 760.7	22257
 761.2	22355
 761.7	22301
 762.2	22287
 762.7	22359
 763.2	22205
 763.7	22327
 764.2	22254
 764.7	22271
 765.2	22325
 765.7	22307
 766.2	22265
 766.7	22344
 767.2	22294
 767.7	22319
 768.2	22311
 768.7	22289
 769.2	22287
 769.7	22355
 770.2	22322
 770.7	22335
 771.2	22309
 771.7	22302
 772.2	22320
 772.7	22380
 773.2	22367
 773.7	22326
 774.2	22265
 774.7	22337
 775.2	22335
 775.7	22309
 776.2	22311
 776.7	22347
 777.2	22267
 777.7	22366
 778.2	22344
 778.7	22392
 779.2	22405
 779.7	22447
 780.2	22272
 780.7	22353
 781.2	22366
 781.7	22450
 782.2	22361
 782.6	22449
 783.1	22457
 783.6	22425
 784.1	22393
 784.6	22381
 785.1	22392
 785.6	22389
 786.1	22434
 786.6	22459
 787.1	22389
 787.6	22402
 788.1	22404
 788.6	22390
 789.1	22381
 789.6	22437
 790.1	22459
 790.6	22466
 791.1	22355
 791.6	22377
 792.0	22411
 792.5	22461
 793.0	22447
 793.5	22455
 794.0	22387
 794.5	22491
 795.0	22481
 795.5	22461
 796.0	22488
 796.5	22428
 797.0	22473
 797.5	22536
 798.0	22379
 798.4	22433
 798.9	22431
 799.4	22466
 799.9	22486
 800.4	22342
 800.9	22473
 801.4	22559
 801.9	22531
 802.4	22459
 802.9	22543
 803.3	22555
 803.8	22535
 804.3	22479
 804.8	22569
 805.3	22532
 805.8	22529
 806.3	22537
 806.8	22533
 807.2	22537
 807.7	22532
 808.2	22569
 808.7	22494
 809.2	22513
 809.7	22455
 810.2	22539
 810.7	22476
 811.1	22516
 811.6	22533
 812.1	22491
 812.6	22455
 813.1	22528
 813.6	22555
 814.1	22531
 814.5	22497
 815.0	22541
 815.5	22504
 816.0	22467
 816.5	22547
 817.0	22501
 817.4	22495
 817.9	22543
 818.4	22475
 818.9	22582
 819.4	22534
 819.9	22511
 820.3	22489
 820.8	22505
 821.3	22516
 821.8	22522
 822.3	22483
 822.7	22467
 823.2	22541
 823.7	22491
 824.2	22503
 824.7	22487
 825.2	22518
 825.6	22499
 826.1	22489
 826.6	22557
 827.1	22553
 827.6	22549
 828.0	22481
 828.5	22451
 829.0	22509
 829.5	22445
 829.9	22459
 830.4	22533
 830.9	22521
 831.4	22548
 831.9	22501
 832.3	22597
 832.8	22539
 833.3	22541
 833.8	22635
 834.2	22625
 834.7	22460
 835.2	22563
 835.7	22567
 836.1	22571
 836.6	22563
 837.1	22563
 837.6	22575
 838.0	22617
 838.5	22648
 839.0	22650
 839.5	22648
 839.9	22563
 840.4	22573
 840.9	22537
 841.4	22590
 841.8	22616
 842.3	22632
 842.8	22657
 843.3	22657
 843.7	22553
 844.2	22547
 844.7	22643
 845.1	22615
 845.6	22532
 846.1	22564
 846.6	22601
 847.0	22487
 847.5	22551
 848.0	22537
 848.4	22584
 848.9	22550
 849.4	22541
 849.8	22567
 850.3	22573
 850.8	22625
 851.3	22586
 851.7	22587
 852.2	22596
 852.7	22591
 853.1	22576
 853.6	22525
 854.1	22573
 854.5	22541
 855.0	22535
 855.5	22531
 855.9	22604
 856.4	22590
 856.9	22502
 857.3	22575
 857.8	22549
 858.3	22604
 858.7	22558
 859.2	22589
 859.7	22576
 860.1	22643
 860.6	22623
 861.1	22564
 861.5	22621
 862.0	22628
 862.4	22609
 862.9	22570
 863.4	22611
 863.8	22623
 864.3	22637
 864.8	22549
 865.2	22602
 865.7	22625
 866.1	22655
 866.6	22567
 867.1	22658
 867.5	22643
 868.0	22635
 868.5	22583
 868.9	22585
 869.4	22702
 869.8	22660
 870.3	22607
 870.8	22690
 871.2	22643
 871.7	22645
 872.1	22597
 872.6	22659
 873.0	22638
 873.5	22749
 874.0	22744
 874.4	22627
 874.9	22679
 875.3	22644
 875.8	22548
 876.2	22311
 876.7	22152
 877.2	21779
 877.6	21343
 878.1	20943
