#xlabel Wavelength (nm)
#ylabel Spectrometer Array Counts
#title Exposure time is 12000 ms
## lambda	counts
 349.8	20568
 350.3	20802
 350.8	21048
 351.3	21263
 351.9	21393
 352.4	21538
 352.9	21640
 353.4	21620
 354.0	21649
 354.5	21722
 355.0	21737
 355.5	21770
 356.0	21737
 356.6	21701
 357.1	21751
 357.6	21731
 358.1	21763
 358.7	21695
 359.2	21715
 359.7	21724
 360.2	21763
 360.8	21725
 361.3	21819
 361.8	21753
 362.3	21785
 362.9	21737
 363.4	21823
 363.9	21808
 364.4	21843
 364.9	21732
 365.5	21812
 366.0	21796
 366.5	21735
 367.0	21791
 367.6	21813
 368.1	21811
 368.6	21734
 369.1	21793
 369.7	21848
 370.2	21753
 370.7	21751
 371.2	21797
 371.8	21850
 372.3	21762
 372.8	21844
 373.3	21855
 373.9	21783
 374.4	21803
 374.9	21850
 375.5	21720
 376.0	21859
 376.5	21807
 377.0	21838
 377.6	21774
 378.1	21850
 378.6	21771
 379.1	21779
 379.7	21751
 380.2	21825
 380.7	21823
 381.2	21769
 381.8	21752
 382.3	21793
 382.8	21765
 383.4	21812
 383.9	21760
 384.4	21918
 384.9	21810
 385.5	21827
 386.0	21827
 386.5	21902
 387.1	21825
 387.6	21842
 388.1	21830
 388.6	21849
 389.2	21828
 389.7	21848
 390.2	21817
 390.8	21918
 391.3	21874
 391.8	21853
 392.3	21820
 392.9	21799
 393.4	21787
 393.9	21861
 394.5	21857
 395.0	21786
 395.5	21805
 396.0	21795
 396.6	21743
 397.1	21851
 397.6	21843
 398.2	21838
 398.7	21833
 399.2	21937
 399.8	21791
 400.3	21856
 400.8	21902
 401.3	21862
 401.9	21874
 402.4	21895
 402.9	21869
 403.5	21901
 404.0	21869
 404.5	21807
 405.1	21812
 405.6	21906
 406.1	21867
 406.7	21867
 407.2	21861
 407.7	21939
 408.2	21918
 408.8	21912
 409.3	21929
 409.8	21969
 410.4	21923
 410.9	21919
 411.4	21850
 412.0	21914
 412.5	21961
 413.0	21899
 413.6	21935
 414.1	21887
 414.6	21910
 415.2	21954
 415.7	21877
 416.2	21916
 416.8	21892
 417.3	21867
 417.8	21878
 418.4	21967
 418.9	21887
 419.4	22037
 420.0	21896
 420.5	21965
 421.0	21881
 421.5	21973
 422.1	21936
 422.6	21991
 423.1	22013
 423.7	21971
 424.2	21949
 424.7	21976
 425.3	21946
 425.8	21959
 426.3	21942
 426.9	21999
 427.4	21919
 427.9	22051
 428.5	21970
 429.0	22003
 429.6	21946
 430.1	22025
 430.6	22007
 431.2	21925
 431.7	22023
 432.2	21967
 432.8	21931
 433.3	22033
 433.8	22023
 434.4	21971
 434.9	21971
 435.4	22017
 436.0	21973
 436.5	21962
 437.0	22027
 437.6	21989
 438.1	22039
 438.6	22045
 439.2	22063
 439.7	22050
 440.2	21982
 440.8	22016
 441.3	22020
 441.8	22014
 442.4	21975
 442.9	22005
 443.5	22053
 444.0	22037
 444.5	22065
 445.1	21958
 445.6	21987
 446.1	22014
 446.7	22026
 447.2	22038
 447.7	22005
 448.3	22073
 448.8	22017
 449.3	22037
 449.9	21959
 450.4	22061
 450.9	22087
 451.5	22070
 452.0	22020
 452.6	22017
 453.1	22073
 453.6	22067
 454.2	21919
 454.7	21985
 455.2	21995
 455.8	22039
 456.3	21964
 456.8	22094
 457.4	22001
 457.9	22002
 458.5	22055
 459.0	21998
 459.5	22047
 460.1	21988
 460.6	22038
 461.1	22023
 461.7	22074
 462.2	22025
 462.7	22063
 463.3	21979
 463.8	22055
 464.4	22123
 464.9	22052
 465.4	22121
 466.0	22002
 466.5	22083
 467.0	21991
 467.6	22061
 468.1	22156
 468.7	22068
 469.2	21977
 469.7	22077
 470.3	22037
 470.8	22068
 471.3	22041
 471.9	21975
 472.4	22030
 473.0	22060
 473.5	22075
 474.0	22057
 474.6	22044
 475.1	22039
 475.6	22103
 476.2	22113
 476.7	22076
 477.3	22131
 477.8	22061
 478.3	21963
 478.9	22191
 479.4	22053
 479.9	22061
 480.5	22027
 481.0	22050
 481.6	22065
 482.1	22124
 482.6	22089
 483.2	22087
 483.7	22205
 484.2	22121
 484.8	21933
 485.3	22031
 485.9	22109
 486.4	22059
 486.9	22067
 487.5	22015
 488.0	22013
 488.6	22078
 489.1	22080
 489.6	22133
 490.2	22119
 490.7	22065
 491.2	22027
 491.8	22085
 492.3	22028
 492.9	22082
 493.4	22091
 493.9	22109
 494.5	22111
 495.0	22183
 495.6	22092
 496.1	22107
 496.6	22178
 497.2	22079
 497.7	22041
 498.2	22148
 498.8	22170
 499.3	22072
 499.9	22135
 500.4	22125
 500.9	22108
 501.5	22081
 502.0	22158
 502.6	22119
 503.1	22206
 503.6	22154
 504.2	22097
 504.7	22083
 505.2	22142
 505.8	22119
 506.3	22199
 506.9	22185
 507.4	22124
 507.9	22078
 508.5	22101
 509.0	22132
 509.6	22188
 510.1	22137
 510.6	22161
 511.2	22169
 511.7	22133
 512.2	22199
 512.8	22205
 513.3	22150
 513.9	22125
 514.4	22186
 514.9	22268
 515.5	22146
 516.0	22233
 516.6	22195
 517.1	22256
 517.6	22233
 518.2	22215
 518.7	22146
 519.3	22214
 519.8	22267
 520.3	22265
 520.9	22219
 521.4	22236
 521.9	22313
 522.5	22227
 523.0	22259
 523.6	22308
 524.1	22145
 524.6	22206
 525.2	22231
 525.7	22274
 526.3	22177
 526.8	22278
 527.3	22209
 527.9	22230
 528.4	22200
 528.9	22257
 529.5	22270
 530.0	22239
 530.6	22289
 531.1	22277
 531.6	22167
 532.2	22279
 532.7	22223
 533.3	22249
 533.8	22369
 534.3	22393
 534.9	22369
 535.4	22290
 536.0	22355
 536.5	22385
 537.0	22327
 537.6	22341
 538.1	22387
 538.6	22399
 539.2	22320
 539.7	22326
 540.3	22439
 540.8	22379
 541.3	22322
 541.9	22357
 542.4	22349
 543.0	22425
 543.5	22375
 544.0	22341
 544.6	22396
 545.1	22415
 545.6	22455
 546.2	22437
 546.7	22327
 547.3	22403
 547.8	22380
 548.3	22445
 548.9	22347
 549.4	22353
 550.0	22317
 550.5	22395
 551.0	22450
 551.6	22390
 552.1	22415
 552.6	22417
 553.2	22385
 553.7	22356
 554.3	22402
 554.8	22481
 555.3	22313
 555.9	22383
 556.4	22338
 556.9	22442
 557.5	22475
 558.0	22417
 558.6	22385
 559.1	22457
 559.6	22431
 560.2	22423
 560.7	22421
 561.3	22378
 561.8	22348
 562.3	22474
 562.9	22447
 563.4	22479
 563.9	22463
 564.5	22463
 565.0	22446
 565.6	22464
 566.1	22456
 566.6	22459
 567.2	22443
 567.7	22559
 568.2	22454
 568.8	22465
 569.3	22428
 569.9	22517
 570.4	22495
 570.9	22457
 571.5	22453
 572.0	22442
 572.5	22501
 573.1	22435
 573.6	22491
 574.1	22475
 574.7	22467
 575.2	22430
 575.8	22467
 576.3	22549
 576.8	22498
 577.4	22503
 577.9	22521
 578.4	22451
 579.0	22458
 579.5	22577
 580.1	22471
 580.6	22471
 581.1	22552
 581.7	22567
 582.2	22488
 582.7	22529
 583.3	22571
 583.8	22532
 584.3	22464
 584.9	22529
 585.4	22525
 586.0	22488
 586.5	22519
 587.0	22465
 587.6	22553
 588.1	22493
 588.6	22573
 589.2	22503
 589.7	22522
 590.2	22505
 590.8	22509
 591.3	22535
 591.9	22478
 592.4	22557
 592.9	22484
 593.5	22473
 594.0	22479
 594.5	22504
 595.1	22493
 595.6	22475
 596.1	22547
 596.7	22517
 597.2	22564
 597.7	22493
 598.3	22521
 598.8	22489
 599.3	22512
 599.9	22491
 600.4	22501
 601.0	22507
 601.5	22502
 602.0	22492
 602.6	22432
 603.1	22450
 603.6	22458
 604.2	22576
 604.7	22459
 605.2	22537
 605.8	22435
 606.3	22459
 606.8	22531
 607.4	22498
 607.9	22543
 608.4	22475
 609.0	22504
 609.5	22548
 610.0	22514
 610.6	22608
 611.1	22511
 611.6	22531
 612.2	22518
 612.7	22579
 613.2	22561
 613.8	22470
 614.3	22492
 614.8	22545
 615.4	22451
 615.9	22539
 616.4	22587
 617.0	22515
 617.5	22616
 618.0	22613
 618.6	22509
 619.1	22528
 619.6	22604
 620.2	22575
 620.7	22626
 621.2	22570
 621.8	22601
 622.3	22619
 622.8	22563
 623.4	22586
 623.9	22639
 624.4	22607
 625.0	22601
 625.5	22603
 626.0	22615
 626.6	22666
 627.1	22656
 627.6	22604
 628.2	22568
 628.7	22606
 629.2	22589
 629.8	22630
 630.3	22642
 630.8	22635
 631.4	22630
 631.9	22661
 632.4	22549
 632.9	22590
 633.5	22596
 634.0	22565
 634.5	22662
 635.1	22597
 635.6	22591
 636.1	22581
 636.7	22650
 637.2	22653
 637.7	22559
 638.3	22673
 638.8	22682
 639.3	22705
 639.8	22650
 640.4	22675
 640.9	22708
 641.4	22611
 642.0	22606
 642.5	22631
 643.0	22602
 643.6	22706
 644.1	22661
 644.6	22669
 645.1	22718
 645.7	22686
 646.2	22647
 646.7	22668
 647.3	22706
 647.8	22704
 648.3	22682
 648.9	22709
 649.4	22603
 649.9	22688
 650.4	22693
 651.0	22731
 651.5	22737
 652.0	22798
 652.6	22723
 653.1	22798
 653.6	22696
 654.1	22771
 654.7	22716
 655.2	22801
 655.7	22835
 656.3	22843
 656.8	22767
 657.3	22823
 657.8	22754
 658.4	22745
 658.9	22746
 659.4	22834
 659.9	22821
 660.5	22781
 661.0	22833
 661.5	22882
 662.1	22835
 662.6	22841
 663.1	22804
 663.6	22883
 664.2	22835
 664.7	22805
 665.2	22721
 665.7	22868
 666.3	22824
 666.8	22837
 667.3	22842
 667.8	22797
 668.4	22834
 668.9	22851
 669.4	22837
 669.9	22876
 670.5	22812
 671.0	22833
 671.5	22782
 672.0	22857
 672.6	22867
 673.1	22904
 673.6	22810
 674.1	22846
 674.7	22851
 675.2	22909
 675.7	22752
 676.2	22769
 676.8	22838
 677.3	22863
 677.8	22787
 678.3	22924
 678.9	22847
 679.4	22794
 679.9	22871
 680.4	22883
 681.0	22854
 681.5	22895
 682.0	22869
 682.5	22907
 683.1	22808
 683.6	22873
 684.1	22812
 684.6	22931
 685.1	22861
 685.7	22895
 686.2	22870
 686.7	22828
 687.2	22814
 687.8	22908
 688.3	22842
 688.8	22872
 689.3	22812
 689.8	22849
 690.4	22840
 690.9	22847
 691.4	22850
 691.9	22883
 692.4	22831
 693.0	22917
 693.5	22883
 694.0	22870
 694.5	22863
 695.1	22841
 695.6	22793
 696.1	22877
 696.6	22863
 697.1	22885
 697.7	22918
 698.2	22837
 698.7	22867
 699.2	22829
 699.7	22842
 700.3	22821
 700.8	22795
 701.3	22928
 701.8	22878
 702.3	22827
 702.8	22839
 703.4	22809
 703.9	22835
 704.4	22837
 704.9	22807
 705.4	22815
 706.0	22924
 706.5	22919
 707.0	22829
 707.5	22825
 708.0	22869
 708.5	22817
 709.1	22907
 709.6	22867
 710.1	22838
 710.6	22813
 711.1	22823
 711.7	22859
 712.2	22861
 712.7	22880
 713.2	22861
 713.7	22871
 714.2	22818
 714.8	22923
 715.3	22861
 715.8	22866
 716.3	22878
 716.8	22778
 717.3	22771
 717.8	22892
 718.4	22908
 718.9	22828
 719.4	22926
 719.9	22826
 720.4	22877
 720.9	22881
 721.4	22882
 722.0	22906
 722.5	22887
 723.0	22870
 723.5	22889
 724.0	22845
 724.5	22831
 725.0	22861
 725.6	22779
 726.1	22835
 726.6	22965
 727.1	22900
 727.6	22941
 728.1	22967
 728.6	22913
 729.1	22903
 729.7	22891
 730.2	22921
 730.7	22957
 731.2	22994
 731.7	22983
 732.2	22991
 732.7	22969
 733.2	23019
 733.8	22995
 734.3	23011
 734.8	22981
 735.3	22997
 735.8	22985
 736.3	22950
 736.8	22980
 737.3	23027
 737.8	22972
 738.4	22957
 738.9	22899
 739.4	23006
 739.9	22989
 740.4	22988
 740.9	22977
 741.4	22977
 741.9	22973
 742.4	22995
 742.9	22973
 743.4	23079
 744.0	22989
 744.5	22986
 745.0	23002
 745.5	23101
 746.0	23076
 746.5	23083
 747.0	23024
 747.5	23015
 748.0	22988
 748.5	23015
 749.0	23032
 749.5	23149
 750.0	22969
 750.5	23047
 751.1	23057
 751.6	23066
 752.1	23064
 752.6	23026
 753.1	23074
 753.6	23005
 754.1	22982
 754.6	23039
 755.1	22999
 755.6	23020
 756.1	22938
 756.6	23057
 757.1	23025
 757.6	23018
 758.1	22994
 758.6	23017
 759.1	22950
 759.6	23005
 760.1	22958
 760.7	22927
 761.2	23019
 761.7	22959
 762.2	22956
 762.7	23019
 763.2	22870
 763.7	22982
 764.2	22915
 764.7	22932
 765.2	22978
 765.7	22954
 766.2	22918
 766.7	22982
 767.2	22941
 767.7	22961
 768.2	22948
 768.7	22921
 769.2	22920
 769.7	22977
 770.2	22954
 770.7	22956
 771.2	22935
 771.7	22925
 772.2	22941
 772.7	23006
 773.2	22985
 773.7	22945
 774.2	22881
 774.7	22950
 775.2	22950
 775.7	22925
 776.2	22927
 776.7	22963
 777.2	22875
 777.7	22973
 778.2	22954
 778.7	23004
 779.2	23021
 779.7	23063
 780.2	22879
 780.7	22967
 781.2	22977
 781.7	23057
 782.2	22973
 782.6	23055
 783.1	23071
 783.6	23033
 784.1	23005
 784.6	22988
 785.1	23002
 785.6	22999
 786.1	23044
 786.6	23064
 787.1	23000
 787.6	23014
 788.1	23003
 788.6	22993
 789.1	22986
 789.6	23043
 790.1	23066
 790.6	23070
 791.1	22963
 791.6	22979
 792.0	23006
 792.5	23062
 793.0	23046
 793.5	23053
 794.0	22984
 794.5	23093
 795.0	23071
 795.5	23048
 796.0	23073
 796.5	23010
 797.0	23050
 797.5	23113
 798.0	22953
 798.4	23013
 798.9	23001
 799.4	23032
 799.9	23055
 800.4	22906
 800.9	23031
 801.4	23112
 801.9	23079
 802.4	23001
 802.9	23083
 803.3	23091
 803.8	23065
 804.3	23006
 804.8	23090
 805.3	23050
 805.8	23046
 806.3	23053
 806.8	23038
 807.2	23048
 807.7	23031
 808.2	23063
 808.7	22983
 809.2	23004
 809.7	22947
 810.2	23023
 810.7	22964
 811.1	22993
 811.6	23009
 812.1	22960
 812.6	22923
 813.1	22985
 813.6	23015
 814.1	22991
 814.5	22951
 815.0	22997
 815.5	22953
 816.0	22914
 816.5	22986
 817.0	22941
 817.4	22930
 817.9	22974
 818.4	22907
 818.9	23005
 819.4	22961
 819.9	22936
 820.3	22911
 820.8	22923
 821.3	22935
 821.8	22945
 822.3	22893
 822.7	22878
 823.2	22953
 823.7	22905
 824.2	22911
 824.7	22893
 825.2	22921
 825.6	22899
 826.1	22891
 826.6	22953
 827.1	22941
 827.6	22939
 828.0	22875
 828.5	22850
 829.0	22902
 829.5	22841
 829.9	22850
 830.4	22924
 830.9	22907
 831.4	22939
 831.9	22889
 832.3	22978
 832.8	22919
 833.3	22921
 833.8	23010
 834.2	23008
 834.7	22834
 835.2	22944
 835.7	22946
 836.1	22949
 836.6	22935
 837.1	22935
 837.6	22949
 838.0	22988
 838.5	23019
 839.0	23022
 839.5	23020
 839.9	22927
 840.4	22943
 840.9	22903
 841.4	22953
 841.8	22985
 842.3	22997
 842.8	23021
 843.3	23023
 843.7	22915
 844.2	22906
 844.7	23004
 845.1	22980
 845.6	22891
 846.1	22916
 846.6	22957
 847.0	22844
 847.5	22911
 848.0	22890
 848.4	22938
 848.9	22897
 849.4	22888
 849.8	22919
 850.3	22920
 850.8	22974
 851.3	22934
 851.7	22931
 852.2	22935
 852.7	22929
 853.1	22918
 853.6	22865
 854.1	22912
 854.5	22876
 855.0	22871
 855.5	22863
 855.9	22937
 856.4	22921
 856.9	22828
 857.3	22901
 857.8	22870
 858.3	22907
 858.7	22869
 859.2	22903
 859.7	22892
 860.1	22953
 860.6	22930
 861.1	22865
 861.5	22927
 862.0	22927
 862.4	22901
 862.9	22865
 863.4	22902
 863.8	22917
 864.3	22923
 864.8	22837
 865.2	22889
 865.7	22911
 866.1	22941
 866.6	22845
 867.1	22937
 867.5	22923
 868.0	22913
 868.5	22858
 868.9	22863
 869.4	22977
 869.8	22939
 870.3	22886
 870.8	22961
 871.2	22909
 871.7	22905
 872.1	22847
 872.6	22899
 873.0	22861
 873.5	22941
 874.0	22911
 874.4	22756
 874.9	22779
 875.3	22714
 875.8	22596
 876.2	22360
 876.7	22211
 877.2	21885
 877.6	21511
 878.1	21184
