#xlabel Wavelength (nm)
#ylabel Spectrometer Array Counts
#title Exposure time is 12000 ms
## lambda	counts
 349.8	20655
 350.3	20944
 350.8	21225
 351.3	21462
 351.9	21590
 352.4	21719
 352.9	21795
 353.4	21749
 354.0	21748
 354.5	21800
 355.0	21788
 355.5	21809
 356.0	21763
 356.6	21722
 357.1	21766
 357.6	21745
 358.1	21772
 358.7	21708
 359.2	21725
 359.7	21737
 360.2	21785
 360.8	21744
 361.3	21849
 361.8	21779
 362.3	21811
 362.9	21765
 363.4	21843
 363.9	21841
 364.4	21872
 364.9	21762
 365.5	21850
 366.0	21825
 366.5	21772
 367.0	21821
 367.6	21839
 368.1	21845
 368.6	21767
 369.1	21821
 369.7	21879
 370.2	21785
 370.7	21790
 371.2	21829
 371.8	21885
 372.3	21795
 372.8	21875
 373.3	21886
 373.9	21815
 374.4	21831
 374.9	21883
 375.5	21757
 376.0	21886
 376.5	21838
 377.0	21873
 377.6	21803
 378.1	21883
 378.6	21797
 379.1	21811
 379.7	21780
 380.2	21855
 380.7	21854
 381.2	21798
 381.8	21785
 382.3	21821
 382.8	21794
 383.4	21842
 383.9	21783
 384.4	21955
 384.9	21843
 385.5	21853
 386.0	21858
 386.5	21927
 387.1	21853
 387.6	21869
 388.1	21859
 388.6	21879
 389.2	21854
 389.7	21873
 390.2	21845
 390.8	21943
 391.3	21895
 391.8	21882
 392.3	21856
 392.9	21830
 393.4	21816
 393.9	21891
 394.5	21882
 395.0	21815
 395.5	21837
 396.0	21830
 396.6	21785
 397.1	21878
 397.6	21873
 398.2	21862
 398.7	21861
 399.2	21973
 399.8	21825
 400.3	21886
 400.8	21932
 401.3	21895
 401.9	21903
 402.4	21923
 402.9	21902
 403.5	21932
 404.0	21899
 404.5	21841
 405.1	21841
 405.6	21938
 406.1	21893
 406.7	21891
 407.2	21891
 407.7	21968
 408.2	21948
 408.8	21945
 409.3	21968
 409.8	21999
 410.4	21954
 410.9	21943
 411.4	21882
 412.0	21945
 412.5	21991
 413.0	21925
 413.6	21964
 414.1	21913
 414.6	21934
 415.2	21982
 415.7	21901
 416.2	21948
 416.8	21922
 417.3	21895
 417.8	21911
 418.4	22005
 418.9	21923
 419.4	22071
 420.0	21919
 420.5	21993
 421.0	21910
 421.5	22005
 422.1	21967
 422.6	22024
 423.1	22045
 423.7	22003
 424.2	21976
 424.7	22006
 425.3	21978
 425.8	21993
 426.3	21967
 426.9	22029
 427.4	21953
 427.9	22079
 428.5	22000
 429.0	22031
 429.6	21975
 430.1	22054
 430.6	22034
 431.2	21949
 431.7	22050
 432.2	21993
 432.8	21958
 433.3	22061
 433.8	22055
 434.4	21999
 434.9	22001
 435.4	22042
 436.0	22001
 436.5	21990
 437.0	22058
 437.6	22016
 438.1	22070
 438.6	22070
 439.2	22093
 439.7	22084
 440.2	22013
 440.8	22041
 441.3	22053
 441.8	22045
 442.4	22002
 442.9	22035
 443.5	22088
 444.0	22068
 444.5	22094
 445.1	21988
 445.6	22026
 446.1	22043
 446.7	22052
 447.2	22069
 447.7	22037
 448.3	22104
 448.8	22045
 449.3	22070
 449.9	21987
 450.4	22093
 450.9	22115
 451.5	22096
 452.0	22047
 452.6	22046
 453.1	22095
 453.6	22090
 454.2	21943
 454.7	22012
 455.2	22025
 455.8	22066
 456.3	21991
 456.8	22117
 457.4	22029
 457.9	22031
 458.5	22079
 459.0	22030
 459.5	22071
 460.1	22012
 460.6	22063
 461.1	22051
 461.7	22100
 462.2	22051
 462.7	22096
 463.3	22011
 463.8	22085
 464.4	22153
 464.9	22078
 465.4	22157
 466.0	22030
 466.5	22111
 467.0	22028
 467.6	22091
 468.1	22186
 468.7	22094
 469.2	22002
 469.7	22104
 470.3	22068
 470.8	22103
 471.3	22065
 471.9	22009
 472.4	22057
 473.0	22091
 473.5	22105
 474.0	22089
 474.6	22075
 475.1	22064
 475.6	22131
 476.2	22141
 476.7	22101
 477.3	22154
 477.8	22081
 478.3	21993
 478.9	22219
 479.4	22084
 479.9	22086
 480.5	22058
 481.0	22075
 481.6	22092
 482.1	22151
 482.6	22116
 483.2	22115
 483.7	22234
 484.2	22153
 484.8	21958
 485.3	22061
 485.9	22140
 486.4	22085
 486.9	22097
 487.5	22041
 488.0	22038
 488.6	22103
 489.1	22109
 489.6	22165
 490.2	22149
 490.7	22095
 491.2	22053
 491.8	22115
 492.3	22055
 492.9	22109
 493.4	22107
 493.9	22135
 494.5	22137
 495.0	22207
 495.6	22115
 496.1	22135
 496.6	22201
 497.2	22107
 497.7	22065
 498.2	22175
 498.8	22199
 499.3	22093
 499.9	22161
 500.4	22151
 500.9	22131
 501.5	22115
 502.0	22187
 502.6	22147
 503.1	22241
 503.6	22181
 504.2	22122
 504.7	22116
 505.2	22177
 505.8	22145
 506.3	22228
 506.9	22209
 507.4	22145
 507.9	22106
 508.5	22133
 509.0	22156
 509.6	22213
 510.1	22161
 510.6	22184
 511.2	22198
 511.7	22155
 512.2	22220
 512.8	22229
 513.3	22174
 513.9	22150
 514.4	22211
 514.9	22293
 515.5	22165
 516.0	22257
 516.6	22222
 517.1	22274
 517.6	22259
 518.2	22239
 518.7	22171
 519.3	22244
 519.8	22295
 520.3	22291
 520.9	22252
 521.4	22260
 521.9	22339
 522.5	22254
 523.0	22289
 523.6	22340
 524.1	22170
 524.6	22228
 525.2	22262
 525.7	22300
 526.3	22207
 526.8	22301
 527.3	22237
 527.9	22259
 528.4	22229
 528.9	22287
 529.5	22294
 530.0	22267
 530.6	22309
 531.1	22301
 531.6	22187
 532.2	22307
 532.7	22250
 533.3	22277
 533.8	22400
 534.3	22425
 534.9	22397
 535.4	22317
 536.0	22385
 536.5	22414
 537.0	22353
 537.6	22367
 538.1	22413
 538.6	22423
 539.2	22341
 539.7	22347
 540.3	22461
 540.8	22399
 541.3	22345
 541.9	22376
 542.4	22377
 543.0	22446
 543.5	22403
 544.0	22366
 544.6	22425
 545.1	22437
 545.6	22481
 546.2	22461
 546.7	22358
 547.3	22428
 547.8	22407
 548.3	22466
 548.9	22366
 549.4	22369
 550.0	22338
 550.5	22422
 551.0	22467
 551.6	22414
 552.1	22435
 552.6	22439
 553.2	22411
 553.7	22381
 554.3	22429
 554.8	22503
 555.3	22337
 555.9	22406
 556.4	22362
 556.9	22463
 557.5	22497
 558.0	22438
 558.6	22404
 559.1	22481
 559.6	22454
 560.2	22445
 560.7	22446
 561.3	22403
 561.8	22367
 562.3	22498
 562.9	22472
 563.4	22502
 563.9	22488
 564.5	22493
 565.0	22467
 565.6	22487
 566.1	22477
 566.6	22484
 567.2	22468
 567.7	22583
 568.2	22475
 568.8	22493
 569.3	22456
 569.9	22535
 570.4	22515
 570.9	22481
 571.5	22477
 572.0	22464
 572.5	22527
 573.1	22463
 573.6	22515
 574.1	22503
 574.7	22490
 575.2	22450
 575.8	22493
 576.3	22571
 576.8	22524
 577.4	22531
 577.9	22546
 578.4	22481
 579.0	22483
 579.5	22596
 580.1	22498
 580.6	22493
 581.1	22579
 581.7	22591
 582.2	22506
 582.7	22547
 583.3	22597
 583.8	22556
 584.3	22487
 584.9	22555
 585.4	22549
 586.0	22510
 586.5	22546
 587.0	22487
 587.6	22575
 588.1	22519
 588.6	22599
 589.2	22532
 589.7	22543
 590.2	22535
 590.8	22531
 591.3	22559
 591.9	22501
 592.4	22577
 592.9	22506
 593.5	22495
 594.0	22499
 594.5	22531
 595.1	22514
 595.6	22499
 596.1	22569
 596.7	22543
 597.2	22588
 597.7	22518
 598.3	22543
 598.8	22517
 599.3	22537
 599.9	22517
 600.4	22519
 601.0	22529
 601.5	22519
 602.0	22514
 602.6	22453
 603.1	22474
 603.6	22477
 604.2	22597
 604.7	22486
 605.2	22564
 605.8	22458
 606.3	22483
 606.8	22558
 607.4	22525
 607.9	22567
 608.4	22495
 609.0	22527
 609.5	22567
 610.0	22533
 610.6	22632
 611.1	22529
 611.6	22556
 612.2	22540
 612.7	22603
 613.2	22582
 613.8	22492
 614.3	22513
 614.8	22569
 615.4	22469
 615.9	22558
 616.4	22607
 617.0	22533
 617.5	22639
 618.0	22632
 618.6	22535
 619.1	22553
 619.6	22624
 620.2	22599
 620.7	22650
 621.2	22592
 621.8	22616
 622.3	22641
 622.8	22579
 623.4	22607
 623.9	22667
 624.4	22628
 625.0	22621
 625.5	22623
 626.0	22632
 626.6	22690
 627.1	22680
 627.6	22618
 628.2	22591
 628.7	22624
 629.2	22609
 629.8	22647
 630.3	22662
 630.8	22653
 631.4	22641
 631.9	22679
 632.4	22567
 632.9	22611
 633.5	22619
 634.0	22581
 634.5	22685
 635.1	22617
 635.6	22607
 636.1	22597
 636.7	22671
 637.2	22679
 637.7	22582
 638.3	22699
 638.8	22704
 639.3	22725
 639.8	22674
 640.4	22699
 640.9	22731
 641.4	22628
 642.0	22625
 642.5	22657
 643.0	22626
 643.6	22725
 644.1	22684
 644.6	22687
 645.1	22739
 645.7	22710
 646.2	22673
 646.7	22694
 647.3	22723
 647.8	22726
 648.3	22703
 648.9	22733
 649.4	22624
 649.9	22703
 650.4	22712
 651.0	22750
 651.5	22759
 652.0	22814
 652.6	22741
 653.1	22819
 653.6	22713
 654.1	22795
 654.7	22736
 655.2	22815
 655.7	22850
 656.3	22863
 656.8	22791
 657.3	22845
 657.8	22773
 658.4	22760
 658.9	22763
 659.4	22853
 659.9	22839
 660.5	22801
 661.0	22853
 661.5	22902
 662.1	22855
 662.6	22860
 663.1	22821
 663.6	22905
 664.2	22851
 664.7	22823
 665.2	22735
 665.7	22887
 666.3	22843
 666.8	22861
 667.3	22864
 667.8	22819
 668.4	22859
 668.9	22872
 669.4	22859
 669.9	22897
 670.5	22835
 671.0	22854
 671.5	22805
 672.0	22879
 672.6	22888
 673.1	22927
 673.6	22829
 674.1	22870
 674.7	22868
 675.2	22926
 675.7	22773
 676.2	22791
 676.8	22861
 677.3	22887
 677.8	22814
 678.3	22945
 678.9	22869
 679.4	22819
 679.9	22892
 680.4	22899
 681.0	22870
 681.5	22917
 682.0	22889
 682.5	22928
 683.1	22829
 683.6	22893
 684.1	22830
 684.6	22951
 685.1	22885
 685.7	22912
 686.2	22887
 686.7	22846
 687.2	22834
 687.8	22930
 688.3	22863
 688.8	22893
 689.3	22824
 689.8	22867
 690.4	22867
 690.9	22868
 691.4	22870
 691.9	22903
 692.4	22854
 693.0	22932
 693.5	22903
 694.0	22888
 694.5	22885
 695.1	22855
 695.6	22810
 696.1	22895
 696.6	22879
 697.1	22903
 697.7	22933
 698.2	22853
 698.7	22886
 699.2	22845
 699.7	22861
 700.3	22843
 700.8	22813
 701.3	22944
 701.8	22907
 702.3	22852
 702.8	22858
 703.4	22830
 703.9	22849
 704.4	22858
 704.9	22827
 705.4	22831
 706.0	22945
 706.5	22942
 707.0	22847
 707.5	22843
 708.0	22888
 708.5	22838
 709.1	22921
 709.6	22887
 710.1	22861
 710.6	22837
 711.1	22842
 711.7	22878
 712.2	22875
 712.7	22898
 713.2	22881
 713.7	22893
 714.2	22838
 714.8	22938
 715.3	22881
 715.8	22889
 716.3	22896
 716.8	22804
 717.3	22786
 717.8	22913
 718.4	22926
 718.9	22850
 719.4	22947
 719.9	22847
 720.4	22897
 720.9	22905
 721.4	22895
 722.0	22927
 722.5	22909
 723.0	22887
 723.5	22908
 724.0	22863
 724.5	22846
 725.0	22878
 725.6	22802
 726.1	22855
 726.6	22992
 727.1	22918
 727.6	22965
 728.1	22988
 728.6	22933
 729.1	22923
 729.7	22913
 730.2	22939
 730.7	22971
 731.2	23016
 731.7	23001
 732.2	23010
 732.7	22987
 733.2	23043
 733.8	23017
 734.3	23027
 734.8	22999
 735.3	23015
 735.8	22999
 736.3	22963
 736.8	23001
 737.3	23047
 737.8	22992
 738.4	22977
 738.9	22920
 739.4	23021
 739.9	23009
 740.4	23009
 740.9	22991
 741.4	22991
 741.9	22993
 742.4	23014
 742.9	22995
 743.4	23099
 744.0	23008
 744.5	23007
 745.0	23025
 745.5	23123
 746.0	23092
 746.5	23101
 747.0	23044
 747.5	23041
 748.0	23007
 748.5	23035
 749.0	23052
 749.5	23167
 750.0	22988
 750.5	23065
 751.1	23077
 751.6	23089
 752.1	23089
 752.6	23047
 753.1	23091
 753.6	23027
 754.1	23001
 754.6	23059
 755.1	23016
 755.6	23044
 756.1	22955
 756.6	23077
 757.1	23045
 757.6	23038
 758.1	23011
 758.6	23038
 759.1	22970
 759.6	23024
 760.1	22975
 760.7	22946
 761.2	23041
 761.7	22982
 762.2	22973
 762.7	23043
 763.2	22893
 763.7	23006
 764.2	22935
 764.7	22954
 765.2	22997
 765.7	22975
 766.2	22938
 766.7	23007
 767.2	22958
 767.7	22983
 768.2	22966
 768.7	22941
 769.2	22942
 769.7	22999
 770.2	22974
 770.7	22980
 771.2	22963
 771.7	22947
 772.2	22962
 772.7	23024
 773.2	23003
 773.7	22969
 774.2	22909
 774.7	22972
 775.2	22969
 775.7	22946
 776.2	22947
 776.7	22980
 777.2	22903
 777.7	22999
 778.2	22978
 778.7	23029
 779.2	23040
 779.7	23081
 780.2	22904
 780.7	22991
 781.2	22997
 781.7	23082
 782.2	22994
 782.6	23080
 783.1	23091
 783.6	23055
 784.1	23025
 784.6	23007
 785.1	23021
 785.6	23020
 786.1	23068
 786.6	23086
 787.1	23025
 787.6	23035
 788.1	23028
 788.6	23023
 789.1	23009
 789.6	23062
 790.1	23088
 790.6	23091
 791.1	22983
 791.6	22997
 792.0	23030
 792.5	23081
 793.0	23065
 793.5	23069
 794.0	23007
 794.5	23109
 795.0	23089
 795.5	23073
 796.0	23096
 796.5	23033
 797.0	23070
 797.5	23134
 798.0	22975
 798.4	23027
 798.9	23024
 799.4	23052
 799.9	23072
 800.4	22928
 800.9	23055
 801.4	23131
 801.9	23104
 802.4	23025
 802.9	23107
 803.3	23113
 803.8	23085
 804.3	23031
 804.8	23113
 805.3	23075
 805.8	23068
 806.3	23078
 806.8	23067
 807.2	23075
 807.7	23055
 808.2	23088
 808.7	23007
 809.2	23023
 809.7	22962
 810.2	23050
 810.7	22981
 811.1	23015
 811.6	23028
 812.1	22982
 812.6	22945
 813.1	23013
 813.6	23037
 814.1	23012
 814.5	22973
 815.0	23018
 815.5	22981
 816.0	22938
 816.5	23015
 817.0	22967
 817.4	22953
 817.9	22997
 818.4	22929
 818.9	23031
 819.4	22987
 819.9	22967
 820.3	22937
 820.8	22947
 821.3	22961
 821.8	22968
 822.3	22921
 822.7	22905
 823.2	22974
 823.7	22927
 824.2	22933
 824.7	22915
 825.2	22946
 825.6	22924
 826.1	22918
 826.6	22984
 827.1	22967
 827.6	22961
 828.0	22899
 828.5	22871
 829.0	22928
 829.5	22865
 829.9	22877
 830.4	22948
 830.9	22929
 831.4	22961
 831.9	22910
 832.3	23005
 832.8	22943
 833.3	22947
 833.8	23036
 834.2	23033
 834.7	22857
 835.2	22967
 835.7	22970
 836.1	22977
 836.6	22959
 837.1	22960
 837.6	22969
 838.0	23016
 838.5	23044
 839.0	23047
 839.5	23045
 839.9	22955
 840.4	22970
 840.9	22933
 841.4	22978
 841.8	23007
 842.3	23021
 842.8	23048
 843.3	23051
 843.7	22944
 844.2	22938
 844.7	23030
 845.1	23005
 845.6	22919
 846.1	22943
 846.6	22981
 847.0	22870
 847.5	22927
 848.0	22916
 848.4	22963
 848.9	22924
 849.4	22907
 849.8	22942
 850.3	22947
 850.8	22996
 851.3	22959
 851.7	22955
 852.2	22963
 852.7	22954
 853.1	22943
 853.6	22886
 854.1	22938
 854.5	22899
 855.0	22894
 855.5	22882
 855.9	22958
 856.4	22942
 856.9	22857
 857.3	22928
 857.8	22896
 858.3	22943
 858.7	22902
 859.2	22931
 859.7	22916
 860.1	22977
 860.6	22959
 861.1	22896
 861.5	22951
 862.0	22954
 862.4	22932
 862.9	22893
 863.4	22938
 863.8	22940
 864.3	22947
 864.8	22863
 865.2	22916
 865.7	22935
 866.1	22963
 866.6	22872
 867.1	22956
 867.5	22939
 868.0	22922
 868.5	22877
 868.9	22876
 869.4	22986
 869.8	22942
 870.3	22888
 870.8	22965
 871.2	22913
 871.7	22912
 872.1	22857
 872.6	22916
 873.0	22896
 873.5	22999
 874.0	22999
 874.4	22881
 874.9	22940
 875.3	22911
 875.8	22833
 876.2	22611
 876.7	22451
 877.2	22082
 877.6	21628
 878.1	21215
