#xlabel Wavelength (nm)
#ylabel Spectrometer Array Counts
#title Exposure time is 12000 ms
## lambda	counts
 349.8	20605
 350.3	20869
 350.8	21138
 351.3	21365
 351.9	21501
 352.4	21641
 352.9	21733
 353.4	21706
 354.0	21713
 354.5	21775
 355.0	21781
 355.5	21798
 356.0	21753
 356.6	21708
 357.1	21755
 357.6	21730
 358.1	21763
 358.7	21701
 359.2	21723
 359.7	21728
 360.2	21777
 360.8	21735
 361.3	21837
 361.8	21768
 362.3	21804
 362.9	21752
 363.4	21833
 363.9	21829
 364.4	21858
 364.9	21756
 365.5	21830
 366.0	21809
 366.5	21759
 367.0	21811
 367.6	21828
 368.1	21824
 368.6	21751
 369.1	21808
 369.7	21863
 370.2	21767
 370.7	21771
 371.2	21813
 371.8	21872
 372.3	21779
 372.8	21862
 373.3	21871
 373.9	21805
 374.4	21819
 374.9	21869
 375.5	21738
 376.0	21873
 376.5	21826
 377.0	21855
 377.6	21789
 378.1	21869
 378.6	21783
 379.1	21794
 379.7	21765
 380.2	21843
 380.7	21839
 381.2	21788
 381.8	21767
 382.3	21805
 382.8	21781
 383.4	21835
 383.9	21775
 384.4	21938
 384.9	21829
 385.5	21843
 386.0	21844
 386.5	21923
 387.1	21839
 387.6	21857
 388.1	21847
 388.6	21865
 389.2	21844
 389.7	21864
 390.2	21832
 390.8	21931
 391.3	21884
 391.8	21872
 392.3	21841
 392.9	21817
 393.4	21807
 393.9	21876
 394.5	21871
 395.0	21797
 395.5	21821
 396.0	21815
 396.6	21767
 397.1	21867
 397.6	21860
 398.2	21859
 398.7	21843
 399.2	21951
 399.8	21809
 400.3	21879
 400.8	21923
 401.3	21883
 401.9	21889
 402.4	21912
 402.9	21888
 403.5	21919
 404.0	21886
 404.5	21823
 405.1	21824
 405.6	21927
 406.1	21879
 406.7	21880
 407.2	21879
 407.7	21955
 408.2	21935
 408.8	21930
 409.3	21950
 409.8	21988
 410.4	21943
 410.9	21932
 411.4	21863
 412.0	21932
 412.5	21980
 413.0	21918
 413.6	21950
 414.1	21903
 414.6	21923
 415.2	21967
 415.7	21893
 416.2	21935
 416.8	21914
 417.3	21886
 417.8	21899
 418.4	21995
 418.9	21903
 419.4	22056
 420.0	21909
 420.5	21981
 421.0	21899
 421.5	21983
 422.1	21955
 422.6	22013
 423.1	22029
 423.7	21992
 424.2	21959
 424.7	21994
 425.3	21963
 425.8	21982
 426.3	21956
 426.9	22016
 427.4	21940
 427.9	22070
 428.5	21990
 429.0	22017
 429.6	21963
 430.1	22041
 430.6	22021
 431.2	21939
 431.7	22034
 432.2	21983
 432.8	21945
 433.3	22049
 433.8	22038
 434.4	21991
 434.9	21987
 435.4	22031
 436.0	21994
 436.5	21979
 437.0	22046
 437.6	22006
 438.1	22064
 438.6	22057
 439.2	22079
 439.7	22067
 440.2	22005
 440.8	22027
 441.3	22042
 441.8	22034
 442.4	21993
 442.9	22027
 443.5	22075
 444.0	22055
 444.5	22083
 445.1	21978
 445.6	22008
 446.1	22027
 446.7	22042
 447.2	22055
 447.7	22025
 448.3	22091
 448.8	22031
 449.3	22058
 449.9	21978
 450.4	22083
 450.9	22103
 451.5	22089
 452.0	22037
 452.6	22034
 453.1	22087
 453.6	22083
 454.2	21934
 454.7	22003
 455.2	22017
 455.8	22056
 456.3	21981
 456.8	22111
 457.4	22018
 457.9	22020
 458.5	22073
 459.0	22017
 459.5	22067
 460.1	22004
 460.6	22054
 461.1	22045
 461.7	22085
 462.2	22045
 462.7	22087
 463.3	21995
 463.8	22074
 464.4	22149
 464.9	22077
 465.4	22147
 466.0	22020
 466.5	22101
 467.0	22018
 467.6	22080
 468.1	22176
 468.7	22086
 469.2	21996
 469.7	22095
 470.3	22056
 470.8	22092
 471.3	22055
 471.9	22001
 472.4	22045
 473.0	22083
 473.5	22093
 474.0	22072
 474.6	22063
 475.1	22053
 475.6	22123
 476.2	22126
 476.7	22091
 477.3	22151
 477.8	22072
 478.3	21983
 478.9	22212
 479.4	22073
 479.9	22075
 480.5	22047
 481.0	22067
 481.6	22086
 482.1	22147
 482.6	22109
 483.2	22105
 483.7	22225
 484.2	22143
 484.8	21951
 485.3	22050
 485.9	22127
 486.4	22080
 486.9	22094
 487.5	22033
 488.0	22032
 488.6	22096
 489.1	22103
 489.6	22151
 490.2	22140
 490.7	22085
 491.2	22051
 491.8	22111
 492.3	22051
 492.9	22101
 493.4	22109
 493.9	22129
 494.5	22131
 495.0	22202
 495.6	22111
 496.1	22127
 496.6	22199
 497.2	22101
 497.7	22064
 498.2	22166
 498.8	22189
 499.3	22090
 499.9	22158
 500.4	22145
 500.9	22126
 501.5	22109
 502.0	22179
 502.6	22140
 503.1	22235
 503.6	22179
 504.2	22113
 504.7	22110
 505.2	22167
 505.8	22139
 506.3	22216
 506.9	22204
 507.4	22143
 507.9	22101
 508.5	22123
 509.0	22157
 509.6	22208
 510.1	22159
 510.6	22181
 511.2	22191
 511.7	22159
 512.2	22220
 512.8	22229
 513.3	22173
 513.9	22146
 514.4	22210
 514.9	22286
 515.5	22164
 516.0	22248
 516.6	22217
 517.1	22277
 517.6	22253
 518.2	22239
 518.7	22170
 519.3	22241
 519.8	22291
 520.3	22294
 520.9	22242
 521.4	22259
 521.9	22334
 522.5	22251
 523.0	22288
 523.6	22332
 524.1	22163
 524.6	22225
 525.2	22255
 525.7	22291
 526.3	22204
 526.8	22301
 527.3	22229
 527.9	22253
 528.4	22226
 528.9	22279
 529.5	22290
 530.0	22263
 530.6	22310
 531.1	22296
 531.6	22188
 532.2	22303
 532.7	22243
 533.3	22267
 533.8	22397
 534.3	22418
 534.9	22391
 535.4	22311
 536.0	22380
 536.5	22409
 537.0	22348
 537.6	22367
 538.1	22409
 538.6	22419
 539.2	22335
 539.7	22344
 540.3	22460
 540.8	22397
 541.3	22349
 541.9	22379
 542.4	22373
 543.0	22450
 543.5	22401
 544.0	22370
 544.6	22422
 545.1	22431
 545.6	22477
 546.2	22459
 546.7	22355
 547.3	22427
 547.8	22401
 548.3	22469
 548.9	22366
 549.4	22371
 550.0	22339
 550.5	22419
 551.0	22466
 551.6	22409
 552.1	22437
 552.6	22436
 553.2	22407
 553.7	22383
 554.3	22428
 554.8	22505
 555.3	22335
 555.9	22401
 556.4	22359
 556.9	22464
 557.5	22494
 558.0	22439
 558.6	22399
 559.1	22474
 559.6	22455
 560.2	22447
 560.7	22444
 561.3	22401
 561.8	22371
 562.3	22497
 562.9	22473
 563.4	22502
 563.9	22482
 564.5	22491
 565.0	22465
 565.6	22486
 566.1	22483
 566.6	22482
 567.2	22468
 567.7	22585
 568.2	22479
 568.8	22491
 569.3	22457
 569.9	22536
 570.4	22515
 570.9	22479
 571.5	22477
 572.0	22461
 572.5	22525
 573.1	22463
 573.6	22512
 574.1	22501
 574.7	22492
 575.2	22453
 575.8	22494
 576.3	22573
 576.8	22531
 577.4	22525
 577.9	22549
 578.4	22479
 579.0	22480
 579.5	22597
 580.1	22499
 580.6	22495
 581.1	22574
 581.7	22590
 582.2	22513
 582.7	22551
 583.3	22601
 583.8	22550
 584.3	22486
 584.9	22559
 585.4	22550
 586.0	22513
 586.5	22544
 587.0	22488
 587.6	22575
 588.1	22521
 588.6	22594
 589.2	22529
 589.7	22549
 590.2	22531
 590.8	22530
 591.3	22559
 591.9	22503
 592.4	22582
 592.9	22509
 593.5	22501
 594.0	22502
 594.5	22530
 595.1	22515
 595.6	22497
 596.1	22569
 596.7	22542
 597.2	22591
 597.7	22522
 598.3	22545
 598.8	22517
 599.3	22540
 599.9	22519
 600.4	22518
 601.0	22532
 601.5	22522
 602.0	22523
 602.6	22462
 603.1	22474
 603.6	22486
 604.2	22601
 604.7	22483
 605.2	22565
 605.8	22458
 606.3	22478
 606.8	22561
 607.4	22527
 607.9	22563
 608.4	22495
 609.0	22528
 609.5	22576
 610.0	22539
 610.6	22630
 611.1	22536
 611.6	22554
 612.2	22540
 612.7	22608
 613.2	22581
 613.8	22498
 614.3	22514
 614.8	22568
 615.4	22478
 615.9	22561
 616.4	22612
 617.0	22540
 617.5	22640
 618.0	22641
 618.6	22542
 619.1	22551
 619.6	22630
 620.2	22601
 620.7	22655
 621.2	22595
 621.8	22625
 622.3	22643
 622.8	22583
 623.4	22610
 623.9	22667
 624.4	22633
 625.0	22633
 625.5	22629
 626.0	22634
 626.6	22696
 627.1	22687
 627.6	22629
 628.2	22594
 628.7	22631
 629.2	22618
 629.8	22653
 630.3	22668
 630.8	22662
 631.4	22653
 631.9	22687
 632.4	22577
 632.9	22617
 633.5	22623
 634.0	22588
 634.5	22687
 635.1	22627
 635.6	22610
 636.1	22603
 636.7	22672
 637.2	22684
 637.7	22587
 638.3	22706
 638.8	22711
 639.3	22733
 639.8	22681
 640.4	22703
 640.9	22736
 641.4	22634
 642.0	22636
 642.5	22660
 643.0	22628
 643.6	22730
 644.1	22683
 644.6	22695
 645.1	22745
 645.7	22711
 646.2	22674
 646.7	22693
 647.3	22726
 647.8	22731
 648.3	22702
 648.9	22735
 649.4	22631
 649.9	22707
 650.4	22715
 651.0	22757
 651.5	22764
 652.0	22813
 652.6	22747
 653.1	22829
 653.6	22719
 654.1	22803
 654.7	22737
 655.2	22821
 655.7	22853
 656.3	22865
 656.8	22798
 657.3	22846
 657.8	22781
 658.4	22771
 658.9	22775
 659.4	22861
 659.9	22845
 660.5	22812
 661.0	22863
 661.5	22910
 662.1	22859
 662.6	22865
 663.1	22827
 663.6	22913
 664.2	22861
 664.7	22834
 665.2	22743
 665.7	22897
 666.3	22850
 666.8	22865
 667.3	22868
 667.8	22827
 668.4	22864
 668.9	22877
 669.4	22865
 669.9	22903
 670.5	22841
 671.0	22859
 671.5	22811
 672.0	22884
 672.6	22893
 673.1	22932
 673.6	22838
 674.1	22877
 674.7	22869
 675.2	22935
 675.7	22777
 676.2	22794
 676.8	22867
 677.3	22898
 677.8	22823
 678.3	22952
 678.9	22879
 679.4	22821
 679.9	22902
 680.4	22907
 681.0	22877
 681.5	22924
 682.0	22896
 682.5	22933
 683.1	22837
 683.6	22900
 684.1	22834
 684.6	22957
 685.1	22893
 685.7	22919
 686.2	22891
 686.7	22857
 687.2	22839
 687.8	22934
 688.3	22865
 688.8	22895
 689.3	22833
 689.8	22875
 690.4	22871
 690.9	22878
 691.4	22879
 691.9	22909
 692.4	22859
 693.0	22941
 693.5	22911
 694.0	22895
 694.5	22887
 695.1	22861
 695.6	22819
 696.1	22901
 696.6	22882
 697.1	22905
 697.7	22942
 698.2	22858
 698.7	22894
 699.2	22855
 699.7	22869
 700.3	22849
 700.8	22819
 701.3	22953
 701.8	22911
 702.3	22851
 702.8	22862
 703.4	22835
 703.9	22863
 704.4	22865
 704.9	22831
 705.4	22836
 706.0	22950
 706.5	22945
 707.0	22851
 707.5	22850
 708.0	22889
 708.5	22840
 709.1	22929
 709.6	22897
 710.1	22863
 710.6	22845
 711.1	22849
 711.7	22882
 712.2	22886
 712.7	22908
 713.2	22887
 713.7	22899
 714.2	22837
 714.8	22945
 715.3	22889
 715.8	22892
 716.3	22901
 716.8	22808
 717.3	22793
 717.8	22919
 718.4	22929
 718.9	22859
 719.4	22953
 719.9	22850
 720.4	22903
 720.9	22914
 721.4	22903
 722.0	22934
 722.5	22913
 723.0	22895
 723.5	22913
 724.0	22867
 724.5	22857
 725.0	22885
 725.6	22809
 726.1	22862
 726.6	22993
 727.1	22925
 727.6	22969
 728.1	22989
 728.6	22937
 729.1	22929
 729.7	22917
 730.2	22946
 730.7	22983
 731.2	23022
 731.7	23011
 732.2	23018
 732.7	22994
 733.2	23046
 733.8	23025
 734.3	23035
 734.8	23004
 735.3	23019
 735.8	23006
 736.3	22969
 736.8	23003
 737.3	23054
 737.8	22997
 738.4	22982
 738.9	22926
 739.4	23024
 739.9	23014
 740.4	23015
 740.9	23001
 741.4	22995
 741.9	23003
 742.4	23022
 742.9	23001
 743.4	23108
 744.0	23015
 744.5	23013
 745.0	23027
 745.5	23131
 746.0	23101
 746.5	23113
 747.0	23054
 747.5	23043
 748.0	23013
 748.5	23042
 749.0	23059
 749.5	23172
 750.0	22993
 750.5	23067
 751.1	23083
 751.6	23094
 752.1	23093
 752.6	23053
 753.1	23097
 753.6	23030
 754.1	23009
 754.6	23067
 755.1	23025
 755.6	23048
 756.1	22962
 756.6	23087
 757.1	23050
 757.6	23046
 758.1	23019
 758.6	23041
 759.1	22979
 759.6	23028
 760.1	22983
 760.7	22953
 761.2	23043
 761.7	22984
 762.2	22978
 762.7	23045
 763.2	22899
 763.7	23009
 764.2	22941
 764.7	22956
 765.2	23005
 765.7	22982
 766.2	22945
 766.7	23009
 767.2	22964
 767.7	22986
 768.2	22975
 768.7	22943
 769.2	22947
 769.7	23007
 770.2	22979
 770.7	22982
 771.2	22963
 771.7	22953
 772.2	22967
 772.7	23031
 773.2	23009
 773.7	22966
 774.2	22915
 774.7	22975
 775.2	22969
 775.7	22948
 776.2	22949
 776.7	22983
 777.2	22901
 777.7	23005
 778.2	22979
 778.7	23033
 779.2	23050
 779.7	23079
 780.2	22908
 780.7	22991
 781.2	23003
 781.7	23083
 782.2	22995
 782.6	23081
 783.1	23097
 783.6	23063
 784.1	23026
 784.6	23015
 785.1	23029
 785.6	23026
 786.1	23069
 786.6	23093
 787.1	23026
 787.6	23033
 788.1	23033
 788.6	23024
 789.1	23011
 789.6	23068
 790.1	23093
 790.6	23094
 791.1	22987
 791.6	23003
 792.0	23036
 792.5	23085
 793.0	23065
 793.5	23071
 794.0	23007
 794.5	23117
 795.0	23089
 795.5	23074
 796.0	23094
 796.5	23036
 797.0	23075
 797.5	23141
 798.0	22975
 798.4	23033
 798.9	23025
 799.4	23057
 799.9	23077
 800.4	22932
 800.9	23053
 801.4	23133
 801.9	23102
 802.4	23025
 802.9	23108
 803.3	23114
 803.8	23089
 804.3	23035
 804.8	23119
 805.3	23075
 805.8	23067
 806.3	23075
 806.8	23069
 807.2	23074
 807.7	23050
 808.2	23084
 808.7	23010
 809.2	23027
 809.7	22964
 810.2	23048
 810.7	22977
 811.1	23015
 811.6	23026
 812.1	22984
 812.6	22946
 813.1	23010
 813.6	23035
 814.1	23012
 814.5	22973
 815.0	23010
 815.5	22975
 816.0	22933
 816.5	23011
 817.0	22962
 817.4	22951
 817.9	22995
 818.4	22929
 818.9	23029
 819.4	22985
 819.9	22962
 820.3	22931
 820.8	22942
 821.3	22955
 821.8	22965
 822.3	22916
 822.7	22902
 823.2	22977
 823.7	22921
 824.2	22931
 824.7	22911
 825.2	22943
 825.6	22925
 826.1	22909
 826.6	22981
 827.1	22966
 827.6	22961
 828.0	22893
 828.5	22867
 829.0	22925
 829.5	22859
 829.9	22872
 830.4	22942
 830.9	22927
 831.4	22953
 831.9	22909
 832.3	22997
 832.8	22940
 833.3	22940
 833.8	23035
 834.2	23027
 834.7	22858
 835.2	22965
 835.7	22967
 836.1	22969
 836.6	22956
 837.1	22958
 837.6	22967
 838.0	23010
 838.5	23041
 839.0	23046
 839.5	23035
 839.9	22953
 840.4	22964
 840.9	22927
 841.4	22975
 841.8	23006
 842.3	23025
 842.8	23044
 843.3	23045
 843.7	22936
 844.2	22931
 844.7	23023
 845.1	22998
 845.6	22914
 846.1	22939
 846.6	22981
 847.0	22863
 847.5	22926
 848.0	22915
 848.4	22957
 848.9	22916
 849.4	22908
 849.8	22937
 850.3	22939
 850.8	22993
 851.3	22955
 851.7	22951
 852.2	22957
 852.7	22950
 853.1	22937
 853.6	22884
 854.1	22933
 854.5	22892
 855.0	22892
 855.5	22879
 855.9	22949
 856.4	22937
 856.9	22850
 857.3	22922
 857.8	22895
 858.3	22940
 858.7	22890
 859.2	22925
 859.7	22913
 860.1	22973
 860.6	22951
 861.1	22887
 861.5	22946
 862.0	22950
 862.4	22927
 862.9	22886
 863.4	22930
 863.8	22937
 864.3	22943
 864.8	22858
 865.2	22907
 865.7	22927
 866.1	22959
 866.6	22869
 867.1	22953
 867.5	22938
 868.0	22923
 868.5	22871
 868.9	22872
 869.4	22982
 869.8	22933
 870.3	22885
 870.8	22963
 871.2	22909
 871.7	22908
 872.1	22856
 872.6	22915
 873.0	22889
 873.5	22983
 874.0	22973
 874.4	22847
 874.9	22885
 875.3	22839
 875.8	22733
 876.2	22497
 876.7	22335
 877.2	21979
 877.6	21566
 878.1	21205
