#xlabel Wavelength (nm)
#ylabel Spectrometer Array Counts
#title Exposure time is 9300 ms
## lambda	counts
 349.8	16651
 350.3	16897
 350.8	17132
 351.3	17310
 351.9	17409
 352.4	17519
 352.9	17599
 353.4	17567
 354.0	17569
 354.5	17613
 355.0	17620
 355.5	17634
 356.0	17591
 356.6	17555
 357.1	17601
 357.6	17579
 358.1	17607
 358.7	17548
 359.2	17565
 359.7	17580
 360.2	17616
 360.8	17580
 361.3	17673
 361.8	17617
 362.3	17639
 362.9	17607
 363.4	17677
 363.9	17673
 364.4	17705
 364.9	17619
 365.5	17685
 366.0	17669
 366.5	17624
 367.0	17670
 367.6	17692
 368.1	17689
 368.6	17627
 369.1	17682
 369.7	17731
 370.2	17661
 370.7	17656
 371.2	17705
 371.8	17747
 372.3	17675
 372.8	17746
 373.3	17759
 373.9	17710
 374.4	17720
 374.9	17763
 375.5	17669
 376.0	17790
 376.5	17751
 377.0	17777
 377.6	17720
 378.1	17794
 378.6	17733
 379.1	17740
 379.7	17725
 380.2	17789
 380.7	17789
 381.2	17749
 381.8	17738
 382.3	17781
 382.8	17757
 383.4	17805
 383.9	17758
 384.4	17899
 384.9	17819
 385.5	17841
 386.0	17837
 386.5	17906
 387.1	17842
 387.6	17853
 388.1	17862
 388.6	17876
 389.2	17861
 389.7	17888
 390.2	17867
 390.8	17950
 391.3	17917
 391.8	17915
 392.3	17907
 392.9	17905
 393.4	17895
 393.9	17970
 394.5	17969
 395.0	17916
 395.5	17940
 396.0	17944
 396.6	17913
 397.1	17999
 397.6	17994
 398.2	17999
 398.7	17999
 399.2	18084
 399.8	17963
 400.3	18027
 400.8	18069
 401.3	18048
 401.9	18063
 402.4	18079
 402.9	18063
 403.5	18096
 404.0	18081
 404.5	18035
 405.1	18047
 405.6	18135
 406.1	18107
 406.7	18119
 407.2	18127
 407.7	18204
 408.2	18197
 408.8	18205
 409.3	18231
 409.8	18274
 410.4	18243
 410.9	18239
 411.4	18202
 412.0	18261
 412.5	18306
 413.0	18267
 413.6	18301
 414.1	18268
 414.6	18299
 415.2	18342
 415.7	18283
 416.2	18334
 416.8	18318
 417.3	18300
 417.8	18328
 418.4	18409
 418.9	18352
 419.4	18479
 420.0	18367
 420.5	18436
 421.0	18382
 421.5	18459
 422.1	18441
 422.6	18491
 423.1	18510
 423.7	18485
 424.2	18477
 424.7	18514
 425.3	18485
 425.8	18501
 426.3	18501
 426.9	18557
 427.4	18499
 427.9	18606
 428.5	18549
 429.0	18591
 429.6	18555
 430.1	18634
 430.6	18629
 431.2	18581
 431.7	18675
 432.2	18648
 432.8	18633
 433.3	18741
 433.8	18739
 434.4	18715
 434.9	18737
 435.4	18783
 436.0	18767
 436.5	18768
 437.0	18845
 437.6	18818
 438.1	18867
 438.6	18874
 439.2	18899
 439.7	18887
 440.2	18843
 440.8	18865
 441.3	18875
 441.8	18873
 442.4	18840
 442.9	18869
 443.5	18902
 444.0	18892
 444.5	18921
 445.1	18845
 445.6	18879
 446.1	18899
 446.7	18915
 447.2	18937
 447.7	18932
 448.3	19002
 448.8	18967
 449.3	19008
 449.9	18967
 450.4	19069
 450.9	19111
 451.5	19117
 452.0	19097
 452.6	19131
 453.1	19185
 453.6	19203
 454.2	19109
 454.7	19183
 455.2	19212
 455.8	19258
 456.3	19208
 456.8	19335
 457.4	19267
 457.9	19284
 458.5	19327
 459.0	19291
 459.5	19324
 460.1	19284
 460.6	19329
 461.1	19313
 461.7	19357
 462.2	19316
 462.7	19349
 463.3	19285
 463.8	19355
 464.4	19420
 464.9	19368
 465.4	19429
 466.0	19336
 466.5	19403
 467.0	19347
 467.6	19423
 468.1	19512
 468.7	19443
 469.2	19392
 469.7	19480
 470.3	19470
 470.8	19513
 471.3	19502
 471.9	19466
 472.4	19525
 473.0	19566
 473.5	19588
 474.0	19583
 474.6	19601
 475.1	19601
 475.6	19677
 476.2	19691
 476.7	19671
 477.3	19734
 477.8	19683
 478.3	19618
 478.9	19813
 479.4	19715
 479.9	19727
 480.5	19724
 481.0	19750
 481.6	19779
 482.1	19844
 482.6	19835
 483.2	19847
 483.7	19965
 484.2	19904
 484.8	19767
 485.3	19867
 485.9	19939
 486.4	19901
 486.9	19930
 487.5	19901
 488.0	19915
 488.6	19976
 489.1	19991
 489.6	20045
 490.2	20042
 490.7	20015
 491.2	19985
 491.8	20043
 492.3	19996
 492.9	20043
 493.4	20055
 493.9	20072
 494.5	20073
 495.0	20141
 495.6	20059
 496.1	20070
 496.6	20125
 497.2	20051
 497.7	20012
 498.2	20091
 498.8	20107
 499.3	20022
 499.9	20087
 500.4	20084
 500.9	20071
 501.5	20069
 502.0	20146
 502.6	20127
 503.1	20215
 503.6	20193
 504.2	20159
 504.7	20177
 505.2	20250
 505.8	20258
 506.3	20343
 506.9	20360
 507.4	20357
 507.9	20344
 508.5	20392
 509.0	20451
 509.6	20528
 510.1	20518
 510.6	20567
 511.2	20602
 511.7	20599
 512.2	20679
 512.8	20711
 513.3	20685
 513.9	20689
 514.4	20751
 514.9	20827
 515.5	20728
 516.0	20809
 516.6	20783
 517.1	20823
 517.6	20805
 518.2	20778
 518.7	20715
 519.3	20757
 519.8	20787
 520.3	20778
 520.9	20722
 521.4	20721
 521.9	20769
 522.5	20690
 523.0	20702
 523.6	20731
 524.1	20593
 524.6	20634
 525.2	20655
 525.7	20691
 526.3	20622
 526.8	20709
 527.3	20667
 527.9	20698
 528.4	20688
 528.9	20757
 529.5	20775
 530.0	20774
 530.6	20829
 531.1	20842
 531.6	20785
 532.2	20907
 532.7	20884
 533.3	20941
 533.8	21073
 534.3	21125
 534.9	21137
 535.4	21111
 536.0	21188
 536.5	21246
 537.0	21226
 537.6	21271
 538.1	21331
 538.6	21365
 539.2	21322
 539.7	21349
 540.3	21463
 540.8	21427
 541.3	21402
 541.9	21440
 542.4	21445
 543.0	21513
 543.5	21475
 544.0	21457
 544.6	21504
 545.1	21511
 545.6	21547
 546.2	21528
 546.7	21439
 547.3	21499
 547.8	21476
 548.3	21517
 548.9	21437
 549.4	21438
 550.0	21397
 550.5	21461
 551.0	21501
 551.6	21453
 552.1	21462
 552.6	21466
 553.2	21442
 553.7	21416
 554.3	21453
 554.8	21515
 555.3	21387
 555.9	21452
 556.4	21414
 556.9	21519
 557.5	21549
 558.0	21514
 558.6	21496
 559.1	21571
 559.6	21559
 560.2	21572
 560.7	21581
 561.3	21557
 561.8	21546
 562.3	21663
 562.9	21654
 563.4	21685
 563.9	21692
 564.5	21698
 565.0	21689
 565.6	21715
 566.1	21718
 566.6	21723
 567.2	21715
 567.7	21820
 568.2	21734
 568.8	21750
 569.3	21721
 569.9	21793
 570.4	21776
 570.9	21753
 571.5	21751
 572.0	21745
 572.5	21806
 573.1	21759
 573.6	21811
 574.1	21803
 574.7	21809
 575.2	21791
 575.8	21831
 576.3	21905
 576.8	21890
 577.4	21894
 577.9	21925
 578.4	21898
 579.0	21915
 579.5	22016
 580.1	21954
 580.6	21977
 581.1	22060
 581.7	22086
 582.2	22031
 582.7	22082
 583.3	22135
 583.8	22111
 584.3	22074
 584.9	22142
 585.4	22151
 586.0	22133
 586.5	22173
 587.0	22139
 587.6	22216
 588.1	22177
 588.6	22246
 589.2	22198
 589.7	22213
 590.2	22203
 590.8	22195
 591.3	22222
 591.9	22169
 592.4	22225
 592.9	22159
 593.5	22144
 594.0	22131
 594.5	22137
 595.1	22115
 595.6	22084
 596.1	22132
 596.7	22087
 597.2	22117
 597.7	22051
 598.3	22057
 598.8	22024
 599.3	22022
 599.9	21996
 600.4	21982
 601.0	21983
 601.5	21962
 602.0	21947
 602.6	21899
 603.1	21915
 603.6	21919
 604.2	22009
 604.7	21923
 605.2	21989
 605.8	21911
 606.3	21939
 606.8	22016
 607.4	21995
 607.9	22042
 608.4	21996
 609.0	22036
 609.5	22086
 610.0	22067
 610.6	22163
 611.1	22100
 611.6	22127
 612.2	22142
 612.7	22213
 613.2	22212
 613.8	22158
 614.3	22207
 614.8	22262
 615.4	22215
 615.9	22309
 616.4	22384
 617.0	22346
 617.5	22449
 618.0	22475
 618.6	22421
 619.1	22475
 619.6	22565
 620.2	22583
 620.7	22658
 621.2	22643
 621.8	22698
 622.3	22741
 622.8	22717
 623.4	22764
 623.9	22831
 624.4	22817
 625.0	22817
 625.5	22837
 626.0	22843
 626.6	22895
 627.1	22883
 627.6	22836
 628.2	22806
 628.7	22838
 629.2	22815
 629.8	22840
 630.3	22845
 630.8	22820
 631.4	22788
 631.9	22802
 632.4	22689
 632.9	22697
 633.5	22680
 634.0	22629
 634.5	22686
 635.1	22613
 635.6	22583
 636.1	22552
 636.7	22588
 637.2	22574
 637.7	22473
 638.3	22553
 638.8	22533
 639.3	22531
 639.8	22478
 640.4	22488
 640.9	22495
 641.4	22404
 642.0	22383
 642.5	22403
 643.0	22374
 643.6	22448
 644.1	22407
 644.6	22418
 645.1	22452
 645.7	22429
 646.2	22395
 646.7	22416
 647.3	22443
 647.8	22450
 648.3	22431
 648.9	22470
 649.4	22393
 649.9	22468
 650.4	22473
 651.0	22526
 651.5	22547
 652.0	22600
 652.6	22557
 653.1	22638
 653.6	22569
 654.1	22647
 654.7	22611
 655.2	22696
 655.7	22735
 656.3	22760
 656.8	22714
 657.3	22774
 657.8	22734
 658.4	22740
 658.9	22755
 659.4	22837
 659.9	22837
 660.5	22817
 661.0	22869
 661.5	22917
 662.1	22883
 662.6	22892
 663.1	22863
 663.6	22931
 664.2	22901
 664.7	22869
 665.2	22804
 665.7	22919
 666.3	22893
 666.8	22893
 667.3	22893
 667.8	22855
 668.4	22879
 668.9	22884
 669.4	22860
 669.9	22888
 670.5	22830
 671.0	22840
 671.5	22786
 672.0	22844
 672.6	22848
 673.1	22866
 673.6	22777
 674.1	22809
 674.7	22790
 675.2	22831
 675.7	22701
 676.2	22699
 676.8	22759
 677.3	22766
 677.8	22692
 678.3	22795
 678.9	22728
 679.4	22673
 679.9	22726
 680.4	22725
 681.0	22695
 681.5	22719
 682.0	22687
 682.5	22715
 683.1	22623
 683.6	22664
 684.1	22607
 684.6	22699
 685.1	22649
 685.7	22663
 686.2	22632
 686.7	22603
 687.2	22583
 687.8	22655
 688.3	22591
 688.8	22617
 689.3	22565
 689.8	22594
 690.4	22585
 690.9	22597
 691.4	22603
 691.9	22619
 692.4	22580
 693.0	22647
 693.5	22623
 694.0	22609
 694.5	22597
 695.1	22581
 695.6	22551
 696.1	22613
 696.6	22596
 697.1	22617
 697.7	22642
 698.2	22575
 698.7	22602
 699.2	22559
 699.7	22569
 700.3	22545
 700.8	22524
 701.3	22623
 701.8	22575
 702.3	22523
 702.8	22533
 703.4	22503
 703.9	22500
 704.4	22493
 704.9	22457
 705.4	22457
 706.0	22543
 706.5	22534
 707.0	22439
 707.5	22427
 708.0	22451
 708.5	22396
 709.1	22461
 709.6	22421
 710.1	22376
 710.6	22356
 711.1	22352
 711.7	22367
 712.2	22366
 712.7	22370
 713.2	22346
 713.7	22350
 714.2	22306
 714.8	22380
 715.3	22328
 715.8	22333
 716.3	22335
 716.8	22254
 717.3	22241
 717.8	22343
 718.4	22357
 718.9	22294
 719.4	22365
 719.9	22289
 720.4	22329
 720.9	22335
 721.4	22332
 722.0	22347
 722.5	22342
 723.0	22330
 723.5	22344
 724.0	22308
 724.5	22307
 725.0	22329
 725.6	22263
 726.1	22315
 726.6	22429
 727.1	22363
 727.6	22400
 728.1	22423
 728.6	22383
 729.1	22373
 729.7	22361
 730.2	22390
 730.7	22421
 731.2	22446
 731.7	22437
 732.2	22449
 732.7	22423
 733.2	22454
 733.8	22441
 734.3	22458
 734.8	22437
 735.3	22454
 735.8	22444
 736.3	22429
 736.8	22465
 737.3	22508
 737.8	22458
 738.4	22461
 738.9	22416
 739.4	22501
 739.9	22479
 740.4	22487
 740.9	22479
 741.4	22478
 741.9	22475
 742.4	22490
 742.9	22474
 743.4	22553
 744.0	22468
 744.5	22465
 745.0	22471
 745.5	22540
 746.0	22507
 746.5	22515
 747.0	22463
 747.5	22447
 748.0	22414
 748.5	22426
 749.0	22433
 749.5	22515
 750.0	22349
 750.5	22405
 751.1	22403
 751.6	22399
 752.1	22379
 752.6	22345
 753.1	22369
 753.6	22307
 754.1	22265
 754.6	22303
 755.1	22265
 755.6	22260
 756.1	22179
 756.6	22264
 757.1	22224
 757.6	22205
 758.1	22165
 758.6	22165
 759.1	22097
 759.6	22115
 760.1	22053
 760.7	22018
 761.2	22079
 761.7	22021
 762.2	21997
 762.7	22036
 763.2	21898
 763.7	21968
 764.2	21898
 764.7	21894
 765.2	21917
 765.7	21874
 766.2	21833
 766.7	21863
 767.2	21805
 767.7	21805
 768.2	21773
 768.7	21732
 769.2	21720
 769.7	21757
 770.2	21719
 770.7	21718
 771.2	21687
 771.7	21657
 772.2	21664
 772.7	21701
 773.2	21679
 773.7	21626
 774.2	21566
 774.7	21615
 775.2	21598
 775.7	21570
 776.2	21557
 776.7	21581
 777.2	21507
 777.7	21575
 778.2	21553
 778.7	21587
 779.2	21593
 779.7	21615
 780.2	21464
 780.7	21531
 781.2	21531
 781.7	21593
 782.2	21515
 782.6	21575
 783.1	21583
 783.6	21543
 784.1	21511
 784.6	21497
 785.1	21510
 785.6	21499
 786.1	21524
 786.6	21539
 787.1	21485
 787.6	21479
 788.1	21472
 788.6	21459
 789.1	21449
 789.6	21477
 790.1	21486
 790.6	21483
 791.1	21390
 791.6	21386
 792.0	21401
 792.5	21436
 793.0	21413
 793.5	21398
 794.0	21337
 794.5	21405
 795.0	21382
 795.5	21349
 796.0	21356
 796.5	21300
 797.0	21314
 797.5	21342
 798.0	21201
 798.4	21230
 798.9	21206
 799.4	21214
 799.9	21203
 800.4	21075
 800.9	21158
 801.4	21205
 801.9	21149
 802.4	21080
 802.9	21133
 803.3	21107
 803.8	21064
 804.3	21009
 804.8	21059
 805.3	21003
 805.8	20972
 806.3	20963
 806.8	20932
 807.2	20915
 807.7	20877
 808.2	20895
 808.7	20812
 809.2	20807
 809.7	20737
 810.2	20788
 810.7	20718
 811.1	20723
 811.6	20712
 812.1	20662
 812.6	20609
 813.1	20649
 813.6	20655
 814.1	20623
 814.5	20580
 815.0	20585
 815.5	20542
 816.0	20490
 816.5	20547
 817.0	20491
 817.4	20462
 817.9	20491
 818.4	20426
 818.9	20490
 819.4	20437
 819.9	20411
 820.3	20381
 820.8	20373
 821.3	20364
 821.8	20362
 822.3	20312
 822.7	20291
 823.2	20340
 823.7	20289
 824.2	20289
 824.7	20265
 825.2	20276
 825.6	20250
 826.1	20233
 826.6	20279
 827.1	20263
 827.6	20253
 828.0	20193
 828.5	20159
 829.0	20195
 829.5	20131
 829.9	20139
 830.4	20179
 830.9	20169
 831.4	20185
 831.9	20143
 832.3	20216
 832.8	20157
 833.3	20150
 833.8	20227
 834.2	20207
 834.7	20062
 835.2	20145
 835.7	20145
 836.1	20133
 836.6	20114
 837.1	20119
 837.6	20127
 838.0	20155
 838.5	20170
 839.0	20169
 839.5	20160
 839.9	20079
 840.4	20083
 840.9	20052
 841.4	20088
 841.8	20098
 842.3	20109
 842.8	20131
 843.3	20121
 843.7	20025
 844.2	20009
 844.7	20095
 845.1	20061
 845.6	19987
 846.1	20004
 846.6	20034
 847.0	19931
 847.5	19972
 848.0	19958
 848.4	19991
 848.9	19959
 849.4	19935
 849.8	19951
 850.3	19943
 850.8	19984
 851.3	19945
 851.7	19941
 852.2	19941
 852.7	19927
 853.1	19899
 853.6	19850
 854.1	19891
 854.5	19853
 855.0	19838
 855.5	19819
 855.9	19885
 856.4	19869
 856.9	19772
 857.3	19821
 857.8	19791
 858.3	19826
 858.7	19772
 859.2	19787
 859.7	19780
 860.1	19836
 860.6	19811
 861.1	19751
 861.5	19783
 862.0	19781
 862.4	19751
 862.9	19708
 863.4	19751
 863.8	19750
 864.3	19743
 864.8	19657
 865.2	19702
 865.7	19722
 866.1	19732
 866.6	19646
 867.1	19715
 867.5	19693
 868.0	19669
 868.5	19615
 868.9	19621
 869.4	19710
 869.8	19657
 870.3	19611
 870.8	19671
 871.2	19626
 871.7	19614
 872.1	19557
 872.6	19603
 873.0	19581
 873.5	19657
 874.0	19645
 874.4	19531
 874.9	19570
 875.3	19521
 875.8	19430
 876.2	19239
 876.7	19101
 877.2	18781
 877.6	18385
 878.1	17995
